0:00	77	N
0:01	370	N
0:01	662	N
0:02	946	N
0:03	1231	N
0:04	1515	N
0:05	1809	N
0:05	2044	A
0:06	2402	N
0:07	2706	N
0:08	2998	N
0:09	3282	N
0:09	3560	N
0:10	3862	N
0:11	4170	N
0:12	4466	N
0:13	4764	N
0:14	5060	N
0:14	5346	N
0:15	5633	N
0:16	5918	N
0:17	6214	N
0:18	6527	N
0:18	6823	N
0:19	7106	N
0:20	7391	N
0:21	7670	N
0:22	7953	N
0:22	8245	N
0:23	8539	N
0:24	8837	N
0:25	9141	N
0:26	9431	N
0:26	9710	N
0:27	9998	N
0:28	10282	N
0:29	10591	N
0:30	10894	N
0:31	11191	N
0:31	11480	N
0:32	11781	N
0:33	12066	N
0:34	12350	N
0:35	12645	N
0:35	12949	N
0:36	13266	N
0:37	13562	N
0:38	13842	N
0:39	14131	N
0:40	14423	N
0:40	14710	N
0:41	15011	N
0:42	15310	N
0:43	15607	N
0:44	15899	N
0:44	16183	N
0:45	16464	N
0:46	16755	N
0:47	17058	N
0:48	17358	N
0:49	17657	N
0:49	17947	N
0:50	18227	N
0:51	18514	N
0:52	18795	N
0:53	19080	N
0:53	19388	N
0:54	19693	N
0:55	19989	N
0:56	20271	N
0:57	20554	N
0:57	20837	N
0:58	21131	N
0:59	21423	N
1:00	21729	N
1:01	22029	N
1:02	22321	N
1:02	22603	N
1:03	22881	N
1:04	23164	N
1:05	23453	N
1:05	23756	N
1:06	24053	N
1:07	24345	N
1:08	24625	N
1:09	24913	N
1:09	25197	N
1:10	25485	N
1:11	25779	N
1:12	26088	N
1:13	26387	N
1:14	26670	N
1:14	26952	N
1:15	27237	N
1:16	27536	N
1:17	27833	N
1:18	28132	N
1:18	28431	N
1:19	28727	N
1:20	29014	N
1:21	29294	N
1:22	29580	N
1:22	29873	N
1:23	30182	N
1:24	30487	N
1:25	30779	N
1:26	31065	N
1:27	31348	N
1:27	31635	N
1:28	31927	N
1:29	32224	N
1:30	32529	N
1:31	32836	N
1:32	33127	N
1:32	33403	N
1:33	33691	N
1:34	33980	N
1:35	34274	N
1:36	34575	N
1:36	34870	N
1:37	35168	N
1:38	35455	N
1:39	35736	N
1:40	36016	N
1:40	36309	N
1:41	36605	N
1:42	36916	N
1:43	37215	N
1:44	37499	N
1:44	37782	N
1:45	38071	N
1:46	38356	N
1:47	38651	N
1:48	38950	N
1:49	39252	N
1:49	39547	N
1:50	39825	N
1:51	40096	N
1:52	40382	N
1:52	40677	N
1:53	40970	N
1:54	41271	N
1:55	41567	N
1:56	41849	N
1:56	42117	N
1:57	42416	N
1:58	42697	N
1:59	42996	N
2:00	43307	N
2:01	43603	N
2:01	43892	N
2:02	44172	N
2:03	44455	N
2:04	44743	N
2:05	45030	N
2:05	45323	N
2:06	45628	N
2:07	45925	N
2:08	46204	N
2:09	46478	N
2:09	46759	N
2:10	47037	N
2:11	47334	N
2:12	47632	N
2:13	47919	N
2:13	48202	N
2:14	48486	N
2:15	48766	N
2:16	49040	N
2:17	49323	N
2:17	49618	N
2:18	49923	N
2:19	50214	N
2:20	50491	N
2:21	50771	N
2:21	51056	N
2:22	51339	N
2:23	51626	N
2:24	51921	N
2:25	52216	N
2:25	52506	N
2:26	52784	N
2:27	53063	N
2:28	53341	N
2:28	53631	N
2:29	53923	N
2:30	54219	N
2:31	54507	N
2:32	54784	N
2:32	55064	N
2:33	55343	N
2:34	55625	N
2:35	55908	N
2:36	56207	N
2:36	56502	N
2:37	56784	N
2:38	57055	N
2:39	57333	N
2:40	57615	N
2:40	57900	N
2:41	58192	N
2:42	58490	N
2:43	58788	N
2:44	59077	N
2:44	59354	N
2:45	59631	N
2:46	59919	N
2:47	60214	N
2:48	60515	N
2:48	60817	N
2:49	61105	N
2:50	61391	N
2:51	61680	N
2:52	61963	N
2:52	62247	N
2:53	62547	N
2:54	62852	N
2:55	63154	N
2:56	63438	N
2:56	63711	N
2:57	63998	N
2:58	64288	N
2:59	64581	N
3:00	64876	N
3:01	65174	N
3:01	65464	N
3:02	65750	N
3:03	66030	N
3:04	66307	N
3:05	66604	N
3:05	66792	A
3:06	67130	N
3:07	67434	N
3:08	67728	N
3:08	68007	N
3:09	68302	N
3:10	68594	N
3:11	68886	N
3:12	69191	N
3:13	69503	N
3:13	69796	N
3:14	70073	N
3:15	70357	N
3:16	70643	N
3:17	70941	N
3:17	71240	N
3:18	71539	N
3:19	71845	N
3:20	72138	N
3:21	72417	N
3:21	72703	N
3:22	72998	N
3:23	73301	N
3:24	73611	N
3:25	73911	N
3:26	74196	N
3:26	74483	N
3:27	74767	N
3:28	74986	A
3:29	75332	N
3:30	75632	N
3:30	75934	N
3:31	76233	N
3:32	76515	N
3:33	76785	N
3:34	77074	N
3:34	77366	N
3:35	77663	N
3:36	77954	N
3:37	78251	N
3:38	78539	N
3:38	78824	N
3:39	79100	N
3:40	79386	N
3:41	79689	N
3:42	79991	N
3:43	80290	N
3:43	80583	N
3:44	80868	N
3:45	81152	N
3:46	81439	N
3:47	81730	N
3:47	82030	N
3:48	82335	N
3:49	82636	N
3:50	82927	N
3:51	83209	N
3:51	83492	N
3:52	83794	N
3:53	84103	N
3:54	84407	N
3:55	84709	N
3:56	85010	N
3:56	85303	N
3:57	85580	N
3:58	85870	N
3:59	86171	N
4:00	86478	N
4:01	86780	N
4:01	87079	N
4:02	87364	N
4:03	87652	N
4:04	87941	N
4:05	88232	N
4:05	88530	N
4:06	88834	N
4:07	89135	N
4:08	89421	N
4:09	89703	N
4:09	89988	N
4:10	90286	N
4:11	90590	N
4:12	90885	N
4:13	91190	N
4:14	91481	N
4:14	91761	N
4:15	92046	N
4:16	92338	N
4:17	92633	N
4:18	92944	N
4:19	93246	N
4:19	93534	N
4:20	93824	N
4:21	94102	N
4:22	94395	N
4:23	94693	N
4:23	94996	N
4:24	95298	N
4:25	95606	N
4:26	95893	N
4:27	96171	N
4:27	96450	N
4:28	96746	N
4:29	97050	N
4:30	97348	N
4:31	97644	N
4:32	97936	N
4:32	98228	N
4:33	98508	N
4:34	98789	N
4:35	99084	N
4:36	99382	N
4:36	99579	A
4:37	99930	N
4:38	100218	N
4:39	100496	N
4:39	100781	N
4:40	101071	N
4:41	101361	N
4:42	101653	N
4:43	101941	N
4:43	102234	N
4:44	102516	N
4:45	102793	N
4:46	103074	N
4:47	103371	N
4:47	103669	N
4:48	103964	N
4:49	104261	N
4:50	104545	N
4:51	104830	N
4:51	105118	N
4:52	105407	N
4:53	105707	N
4:54	106015	N
4:55	106314	N
4:56	106600	N
4:56	106882	N
4:57	107159	N
4:58	107453	N
4:59	107750	N
5:00	108045	N
5:00	108342	N
5:01	108643	N
5:02	108926	N
5:03	109199	N
5:04	109486	N
5:04	109772	N
5:05	110076	N
5:06	110374	N
5:07	110673	N
5:08	110963	N
5:09	111244	N
5:09	111524	N
5:10	111810	N
5:11	112108	N
5:12	112405	N
5:13	112710	N
5:13	113000	N
5:14	113281	N
5:15	113562	N
5:16	113850	N
5:17	114142	N
5:17	114428	N
5:18	114716	N
5:19	115000	N
5:20	115280	N
5:20	115547	N
5:21	115815	N
5:22	116084	N
5:23	116369	N
5:24	116654	N
5:24	116939	N
5:25	117213	N
5:26	117494	N
5:27	117766	N
5:27	118044	N
5:28	118323	N
5:29	118607	N
5:30	118911	N
5:31	119215	N
5:31	119509	N
5:32	119791	N
5:33	120077	N
5:34	120376	N
5:35	120676	N
5:36	120990	N
5:36	121300	N
5:37	121604	N
5:38	121889	N
5:39	122170	N
5:40	122460	N
5:40	122750	N
5:41	123050	N
5:42	123360	N
5:43	123664	N
5:44	123936	N
5:45	124221	N
5:45	124507	N
5:46	124775	N
5:47	125060	N
5:48	125355	N
5:49	125648	N
5:49	125926	N
5:50	126203	N
5:51	126476	N
5:52	126746	N
5:52	127025	N
5:53	127313	N
5:54	127603	N
5:55	127892	N
5:55	128085	A
5:56	128423	N
5:57	128698	N
5:58	128958	N
5:58	129230	N
5:59	129519	N
6:00	129798	N
6:01	130057	N
6:01	130318	N
6:02	130568	N
6:03	130818	N
6:04	131073	N
6:04	131326	N
6:05	131584	N
6:06	131851	N
6:07	132122	N
6:07	132381	N
6:08	132629	N
6:09	132883	N
6:09	133132	N
6:10	133390	N
6:11	133662	N
6:12	133933	N
6:12	134197	N
6:13	134463	N
6:14	134737	N
6:14	134990	N
6:15	135243	N
6:16	135504	N
6:17	135780	N
6:17	136061	N
6:18	136350	N
6:19	136630	N
6:20	136899	N
6:21	137170	N
6:21	137449	N
6:22	137729	N
6:23	138008	N
6:24	138304	N
6:24	138598	N
6:25	138888	N
6:26	139164	N
6:27	139440	N
6:28	139719	N
6:28	140009	N
6:29	140302	N
6:30	140599	N
6:31	140881	N
6:32	141152	N
6:32	141423	N
6:33	141684	N
6:34	141943	N
6:35	142207	N
6:35	142479	N
6:36	142747	N
6:37	143010	N
6:37	143265	N
6:38	143515	N
6:39	143766	N
6:40	144025	N
6:40	144286	N
6:41	144557	N
6:42	144832	N
6:43	145111	N
6:43	145381	N
6:44	145647	N
6:45	145902	N
6:46	146170	N
6:46	146445	N
6:47	146737	N
6:48	147013	N
6:49	147290	N
6:49	147565	N
6:50	147832	N
6:51	148099	N
6:52	148363	N
6:52	148637	N
6:53	148916	N
6:54	149204	N
6:55	149488	N
6:56	149768	N
6:56	150030	N
6:57	150303	N
6:58	150575	N
6:59	150849	N
6:59	151122	N
7:00	151407	N
7:01	151700	N
7:02	151974	N
7:02	152237	N
7:03	152510	N
7:04	152781	N
7:05	153067	N
7:06	153362	N
7:06	153644	N
7:07	153922	N
7:08	154193	N
7:09	154470	N
7:09	154741	N
7:10	155009	N
7:11	155291	N
7:12	155588	N
7:12	155865	N
7:13	156132	N
7:14	156395	N
7:15	156648	N
7:15	156906	N
7:16	157168	N
7:17	157430	N
7:18	157695	N
7:18	157960	N
7:19	158233	N
7:20	158489	N
7:20	158730	N
7:21	158974	N
7:22	159225	N
7:22	159479	N
7:23	159738	N
7:24	160001	N
7:25	160260	N
7:25	160507	N
7:26	160755	N
7:27	161005	N
7:27	161254	N
7:28	161499	N
7:29	161764	N
7:30	162035	N
7:30	162308	N
7:31	162573	N
7:32	162835	N
7:33	163093	N
7:33	163362	N
7:34	163629	N
7:35	163899	N
7:36	164182	N
7:36	164461	N
7:37	164731	N
7:38	164991	N
7:39	165246	N
7:39	165499	N
7:40	165756	N
7:41	166032	N
7:41	166301	N
7:42	166570	N
7:43	166841	N
7:44	167111	N
7:44	167371	N
7:45	167641	N
7:46	167912	N
7:47	168191	N
7:48	168484	N
7:48	168784	N
7:49	169074	N
7:50	169349	N
7:51	169629	N
7:51	169907	N
7:52	170201	N
7:53	170495	N
7:54	170719	A
7:55	171074	N
7:56	171371	N
7:56	171652	N
7:57	171921	N
7:58	172199	N
7:59	172481	N
7:59	172776	N
8:00	173067	N
8:01	173351	N
8:02	173629	N
8:03	173907	N
8:03	174176	N
8:04	174451	N
8:05	174737	N
8:06	175023	N
8:07	175323	N
8:07	175608	N
8:08	175877	N
8:09	176145	N
8:10	176427	N
8:10	176698	N
8:11	176975	N
8:12	177248	N
8:13	177523	N
8:13	177797	N
8:14	178059	N
8:15	178316	N
8:16	178578	N
8:16	178841	N
8:17	179117	N
8:18	179388	N
8:19	179662	N
8:19	179927	N
8:20	180182	N
8:21	180443	N
8:21	180705	N
8:22	180964	N
8:23	181236	N
8:24	181523	N
8:25	181811	N
8:25	182084	N
8:26	182353	N
8:27	182624	N
8:28	182896	N
8:28	183181	N
8:29	183475	N
8:30	183778	N
8:31	184071	N
8:32	184361	N
8:32	184649	N
8:33	184933	N
8:34	185213	N
8:35	185510	N
8:36	185828	N
8:37	186137	N
8:37	186428	N
8:38	186717	N
8:39	187005	N
8:40	187291	N
8:41	187577	N
8:41	187872	N
8:42	188179	N
8:43	188481	N
8:44	188763	N
8:45	189043	N
8:45	189330	N
8:46	189624	N
8:47	189929	N
8:48	190228	N
8:49	190529	N
8:50	190820	N
8:50	191112	N
8:51	191395	N
8:52	191674	N
8:53	191977	N
8:54	192281	N
8:54	192575	N
8:55	192862	N
8:56	193146	N
8:57	193423	N
8:58	193703	N
8:58	193994	N
8:59	194281	N
9:00	194574	N
9:01	194868	N
9:02	195156	N
9:02	195426	N
9:03	195701	N
9:04	195978	N
9:05	196268	N
9:06	196560	N
9:06	196847	N
9:07	197132	N
9:08	197414	N
9:09	197685	N
9:09	197950	N
9:10	198224	N
9:11	198504	N
9:12	198791	N
9:12	199075	N
9:13	199353	N
9:14	199619	N
9:15	199894	N
9:16	200161	N
9:16	200434	N
9:17	200714	N
9:18	200993	N
9:19	201271	N
9:19	201545	N
9:20	201806	N
9:21	202067	N
9:22	202339	N
9:22	202614	N
9:23	202896	N
9:24	203182	N
9:25	203468	N
9:25	203741	N
9:26	204021	N
9:27	204299	N
9:28	204574	N
9:29	204854	N
9:29	205158	N
9:30	205459	N
9:31	205737	N
9:32	206016	N
9:33	206288	N
9:33	206567	N
9:34	206844	N
9:35	207130	N
9:36	207421	N
9:37	207724	N
9:37	208004	N
9:38	208277	N
9:39	208548	N
9:40	208822	N
9:40	209100	N
9:41	209392	N
9:42	209683	N
9:43	209973	N
9:44	210256	N
9:44	210534	N
9:45	210809	N
9:46	211085	N
9:47	211364	N
9:47	211654	N
9:48	211951	N
9:49	212228	N
9:50	212502	N
9:51	212777	N
9:51	213058	N
9:52	213326	N
9:53	213606	N
9:54	213894	N
9:54	214181	N
9:55	214465	N
9:56	214738	N
9:57	215005	N
9:58	215280	N
9:58	215563	N
9:59	215850	N
10:00	216141	N
10:01	216431	N
10:01	216710	N
10:02	216990	N
10:03	217268	N
10:04	217547	N
10:05	217824	N
10:05	218122	N
10:06	218416	N
10:07	218703	N
10:08	218972	N
10:09	219246	N
10:09	219529	N
10:10	219813	N
10:11	220098	N
10:12	220391	N
10:13	220691	N
10:13	220977	N
10:14	221252	N
10:15	221527	N
10:16	221804	N
10:16	222081	N
10:17	222375	N
10:18	222666	N
10:19	222951	N
10:20	223227	N
10:20	223507	N
10:21	223783	N
10:22	224047	N
10:23	224328	N
10:23	224621	N
10:24	224915	N
10:25	225195	N
10:26	225472	N
10:27	225743	N
10:27	226024	N
10:28	226296	N
10:29	226573	N
10:30	226863	N
10:30	227144	N
10:31	227427	N
10:32	227702	N
10:33	227975	N
10:33	228238	N
10:34	228516	N
10:35	228808	N
10:36	229094	N
10:37	229376	N
10:37	229660	N
10:38	229936	N
10:39	230214	N
10:40	230485	N
10:41	230761	N
10:41	231058	N
10:42	231357	N
10:43	231638	N
10:44	231913	N
10:44	232190	N
10:45	232459	N
10:46	232732	N
10:47	233016	N
10:48	233301	N
10:48	233588	N
10:49	233875	N
10:50	234151	N
10:51	234415	N
10:51	234684	N
10:52	234959	N
10:53	235249	N
10:54	235547	N
10:55	235828	N
10:55	236108	N
10:56	236390	N
10:57	236664	N
10:58	236927	N
10:58	237205	N
10:59	237495	N
11:00	237783	N
11:01	238070	N
11:02	238343	N
11:02	238610	N
11:03	238884	N
11:04	239157	N
11:05	239433	N
11:05	239717	N
11:06	239996	N
11:07	240266	N
11:08	240541	N
11:08	240809	N
11:09	241065	N
11:10	241318	N
11:11	241588	N
11:11	241855	N
11:12	242114	N
11:13	242373	N
11:13	242632	N
11:14	242879	N
11:15	243132	N
11:16	243388	N
11:16	243643	N
11:17	243908	N
11:18	244191	N
11:19	244461	N
11:19	244729	N
11:20	244984	N
11:21	245246	N
11:21	245515	N
11:22	245791	N
11:23	246065	N
11:24	246352	N
11:25	246647	N
11:25	246935	N
11:26	247201	N
11:27	247469	N
11:28	247742	N
11:28	248017	N
11:29	248300	N
11:30	248586	N
11:31	248878	N
11:32	249158	N
11:32	249433	N
11:33	249706	N
11:34	249988	N
11:35	250273	N
11:35	250558	N
11:36	250858	N
11:37	251160	N
11:38	251441	N
11:39	251710	N
11:39	251994	N
11:40	252285	N
11:41	252584	N
11:42	252868	N
11:43	253159	N
11:44	253456	N
11:44	253741	N
11:45	254010	N
11:46	254282	N
11:47	254585	N
11:48	254891	N
11:48	255170	N
11:49	255453	N
11:50	255738	N
11:51	256027	N
11:51	256295	N
11:52	256572	N
11:53	256860	N
11:54	257157	N
11:55	257439	N
11:55	257710	N
11:56	257966	N
11:57	258226	N
11:57	258478	N
11:58	258737	N
11:59	259005	N
12:00	259280	N
12:00	259541	N
12:01	259811	N
12:02	260076	N
12:03	260334	N
12:03	260585	N
12:04	260852	N
12:05	261132	N
12:06	261417	N
12:06	261690	N
12:07	261968	N
12:08	262241	N
12:09	262516	N
12:09	262789	N
12:10	263062	N
12:11	263350	N
12:12	263641	N
12:13	263931	N
12:13	264217	N
12:14	264499	N
12:15	264772	N
12:16	265062	N
12:17	265354	N
12:17	265651	N
12:18	265947	N
12:19	266238	N
12:20	266528	N
12:21	266815	N
12:21	267099	N
12:22	267375	N
12:23	267679	N
12:24	267978	N
12:25	268260	N
12:25	268544	N
12:26	268823	N
12:27	269102	N
12:28	269384	N
12:29	269669	N
12:29	269960	N
12:30	270257	N
12:31	270550	N
12:32	270821	N
12:33	271094	N
12:33	271370	N
12:34	271656	N
12:35	271952	N
12:36	272244	N
12:37	272533	N
12:37	272839	N
12:38	273123	N
12:39	273394	N
12:40	273675	N
12:41	273967	N
12:41	274264	N
12:42	274560	N
12:43	274852	N
12:44	275131	N
12:45	275403	N
12:45	275671	N
12:46	275949	N
12:47	276235	N
12:48	276516	N
12:48	276804	N
12:49	277102	N
12:50	277388	N
12:51	277649	N
12:52	277923	N
12:52	278211	N
12:53	278518	N
12:54	278814	N
12:55	279098	N
12:56	279382	N
12:56	279576	A
12:57	279918	N
12:58	280209	N
12:59	280511	N
13:00	280814	N
13:00	281110	N
13:01	281402	N
13:02	281682	N
13:03	281955	N
13:03	282232	N
13:04	282513	N
13:05	282801	N
13:06	283096	N
13:07	283389	N
13:07	283672	N
13:08	283944	N
13:09	284216	N
13:10	284491	N
13:11	284778	N
13:11	285073	N
13:12	285363	N
13:13	285653	N
13:14	285936	N
13:15	286210	N
13:15	286486	N
13:16	286763	N
13:17	287051	N
13:18	287353	N
13:19	287655	N
13:19	287944	N
13:20	288225	N
13:21	288506	N
13:22	288792	N
13:22	289076	N
13:23	289373	N
13:24	289667	N
13:25	289971	N
13:26	290257	N
13:27	290538	N
13:27	290813	N
13:28	291109	N
13:29	291407	N
13:30	291696	N
13:31	291990	N
13:31	292281	N
13:32	292566	N
13:33	292844	N
13:34	293123	N
13:35	293411	N
13:35	293712	N
13:36	294011	N
13:37	294296	N
13:38	294581	N
13:39	294857	N
13:39	295142	N
13:40	295421	N
13:41	295717	N
13:42	296013	N
13:43	296319	N
13:43	296611	N
13:44	296889	N
13:45	297169	N
13:46	297450	N
13:47	297738	N
13:47	298032	N
13:48	298334	N
13:49	298627	N
13:50	298920	N
13:51	299206	N
13:51	299483	N
13:52	299756	N
13:53	300051	N
13:54	300360	N
13:55	300662	N
13:55	300940	N
13:56	301210	N
13:57	301494	N
13:58	301781	N
13:59	302063	N
13:59	302347	N
14:00	302644	N
14:01	302947	N
14:02	303240	N
14:03	303503	N
14:03	303773	N
14:04	304065	N
14:05	304361	N
14:06	304639	N
14:07	304923	N
14:07	305211	N
14:08	305497	N
14:09	305709	A
14:10	306035	N
14:10	306337	N
14:11	306641	N
14:12	306943	N
14:13	307234	N
14:14	307514	N
14:14	307745	A
14:15	308062	N
14:16	308349	N
14:17	308625	N
14:18	308912	N
14:18	309216	N
14:19	309515	N
14:20	309780	N
14:21	310052	N
14:22	310332	N
14:22	310626	N
14:23	310914	N
14:24	311199	N
14:25	311488	N
14:26	311783	N
14:26	312062	N
14:27	312327	N
14:28	312605	N
14:28	312825	A
14:29	313193	N
14:30	313508	N
14:31	313808	N
14:32	314090	N
14:33	314373	N
14:34	314664	N
14:34	314952	N
14:35	315245	N
14:36	315541	N
14:37	315843	N
14:38	316136	N
14:38	316415	N
14:39	316693	N
14:40	316980	N
14:41	317266	N
14:42	317560	N
14:42	317785	A
14:43	318145	N
14:44	318438	N
14:45	318729	N
14:46	319011	N
14:46	319223	A
14:47	319586	N
14:48	319904	N
14:49	320205	N
14:50	320493	N
14:51	320786	N
14:51	321072	N
14:52	321371	N
14:53	321663	N
14:54	321968	N
14:55	322275	N
14:56	322573	N
14:56	322856	N
14:57	323138	N
14:58	323425	N
14:59	323730	N
15:00	324044	N
15:00	324340	N
15:01	324641	N
15:02	324929	N
15:03	325215	N
15:04	325495	N
15:04	325782	N
15:05	326088	N
15:06	326395	N
15:07	326698	N
15:08	326986	N
15:09	327276	N
15:09	327566	N
15:10	327858	N
15:11	328149	N
15:12	328452	N
15:13	328753	N
15:14	329056	N
15:14	329339	N
15:15	329619	N
15:16	329912	N
15:17	330216	N
15:18	330524	N
15:18	330819	N
15:19	331124	N
15:20	331411	N
15:21	331704	N
15:22	331989	N
15:22	332279	N
15:23	332588	N
15:24	332897	N
15:25	333199	N
15:26	333479	N
15:27	333768	N
15:27	334056	N
15:28	334348	N
15:29	334643	N
15:30	334943	N
15:31	335248	N
15:32	335543	N
15:32	335823	N
15:33	336100	N
15:34	336385	N
15:35	336679	N
15:36	336979	N
15:36	337281	N
15:37	337571	N
15:38	337862	N
15:39	338145	N
15:40	338432	N
15:40	338720	N
15:41	339025	N
15:42	339327	N
15:43	339634	N
15:44	339926	N
15:45	340205	N
15:45	340492	N
15:46	340780	N
15:47	341075	N
15:48	341379	N
15:49	341684	N
15:49	341974	N
15:50	342266	N
15:51	342547	N
15:52	342822	N
15:53	343115	N
15:53	343409	N
15:54	343705	N
15:55	343995	N
15:56	344279	N
15:57	344556	N
15:57	344843	N
15:58	345129	N
15:59	345415	N
16:00	345722	N
16:01	346017	N
16:01	346308	N
16:02	346596	N
16:03	346804	A
16:04	347147	N
16:05	347454	N
16:05	347759	N
16:06	348063	N
16:07	348367	N
16:08	348658	N
16:09	348934	N
16:10	349221	N
16:10	349502	N
16:11	349804	N
16:12	350112	N
16:13	350410	N
16:14	350692	N
16:14	350980	N
16:15	351265	N
16:16	351481	A
16:17	351821	N
16:18	352115	N
16:18	352416	N
16:19	352711	N
16:20	352986	N
16:21	353257	N
16:22	353547	N
16:22	353832	N
16:23	354128	N
16:24	354426	N
16:25	354717	N
16:26	355015	N
16:26	355302	N
16:27	355579	N
16:28	355858	N
16:29	356165	N
16:30	356463	N
16:30	356758	N
16:31	357045	N
16:32	357327	N
16:33	357610	N
16:34	357900	N
16:34	358186	N
16:35	358482	N
16:36	358788	N
16:37	359086	N
16:38	359365	N
16:38	359634	N
16:39	359903	N
16:40	360182	N
16:41	360471	N
16:42	360763	N
16:42	361051	N
16:43	361343	N
16:44	361625	N
16:45	361894	N
16:46	362162	N
16:46	362451	N
16:47	362732	N
16:48	363026	N
16:49	363318	N
16:50	363606	N
16:50	363878	N
16:51	364158	N
16:52	364446	N
16:53	364730	N
16:53	365022	N
16:54	365330	N
16:55	365640	N
16:56	365914	N
16:57	366191	N
16:58	366482	N
16:58	366778	N
16:59	367063	N
17:00	367363	N
17:01	367674	N
17:02	367960	N
17:02	368247	N
17:03	368531	N
17:04	368824	N
17:05	369109	N
17:06	369410	N
17:06	369714	N
17:07	370010	N
17:08	370279	N
17:09	370557	N
17:10	370842	N
17:10	371131	N
17:11	371406	N
17:12	371703	N
17:13	372007	N
17:14	372299	N
17:14	372557	N
17:15	372834	N
17:16	373123	N
17:17	373428	N
17:18	373712	N
17:18	374000	N
17:19	374303	N
17:20	374595	N
17:21	374855	N
17:22	375124	N
17:22	375412	N
17:23	375715	N
17:24	375998	N
17:25	376287	N
17:26	376576	N
17:26	376861	N
17:27	377081	A
17:28	377404	N
17:29	377700	N
17:30	378005	N
17:30	378308	N
17:31	378608	N
17:32	378886	N
17:33	379159	N
17:33	379439	N
17:34	379731	N
17:35	380023	N
17:36	380312	N
17:37	380610	N
17:38	380898	N
17:38	381173	N
17:39	381452	N
17:40	381724	N
17:41	382014	N
17:41	382308	N
17:42	382607	N
17:43	382895	N
17:44	383183	N
17:45	383457	N
17:45	383743	N
17:46	384027	N
17:47	384317	N
17:48	384614	N
17:49	384915	N
17:50	385205	N
17:50	385487	N
17:51	385768	N
17:52	386050	N
17:53	386349	N
17:54	386649	N
17:54	386941	N
17:55	387241	N
17:56	387533	N
17:57	387811	N
17:58	388084	N
17:58	388373	N
17:59	388671	N
18:00	388979	N
18:01	389277	N
18:02	389563	N
18:02	389860	N
18:03	390149	N
18:04	390434	N
18:05	390730	N
18:06	391039	N
18:07	391344	N
18:07	391641	N
18:08	391924	N
18:09	392204	N
18:10	392493	N
18:11	392780	N
18:11	393077	N
18:12	393377	N
18:13	393674	N
18:14	393957	N
18:15	394243	N
18:15	394519	N
18:16	394801	N
18:17	395096	N
18:18	395401	N
18:19	395697	N
18:19	395989	N
18:20	396268	N
18:21	396553	N
18:22	396845	N
18:23	397133	N
18:23	397335	A
18:24	397704	N
18:25	398007	N
18:26	398294	N
18:27	398569	N
18:27	398853	N
18:28	399139	N
18:29	399436	N
18:30	399730	N
18:31	400023	N
18:32	400321	N
18:32	400599	N
18:33	400877	N
18:34	401163	N
18:35	401453	N
18:35	401757	N
18:36	402061	N
18:37	402361	N
18:38	402646	N
18:39	402933	N
18:40	403215	N
18:40	403509	N
18:41	403804	N
18:42	404100	N
18:43	404403	N
18:44	404697	N
18:44	404980	N
18:45	405255	N
18:46	405543	N
18:47	405836	N
18:48	406131	N
18:48	406425	N
18:49	406715	N
18:50	407005	N
18:51	407288	N
18:52	407559	N
18:52	407849	N
18:53	408151	N
18:54	408452	N
18:55	408746	N
18:56	409030	N
18:56	409314	N
18:57	409597	N
18:58	409881	N
18:59	410177	N
19:00	410477	N
19:01	410781	N
19:01	411071	N
19:02	411352	N
19:03	411632	N
19:04	411915	N
19:05	412206	N
19:05	412512	N
19:06	412816	N
19:07	413109	N
19:08	413402	N
19:09	413692	N
19:09	413969	N
19:10	414249	N
19:11	414541	N
19:12	414847	N
19:13	415143	N
19:13	415430	N
19:14	415703	N
19:15	415994	N
19:16	416275	N
19:17	416555	N
19:17	416849	N
19:18	417152	N
19:19	417445	N
19:20	417728	N
19:21	418006	N
19:21	418283	N
19:22	418577	N
19:23	418866	N
19:24	419155	N
19:25	419453	N
19:25	419745	N
19:26	420022	N
19:27	420302	N
19:28	420583	N
19:29	420873	N
19:29	421173	N
19:30	421474	N
19:31	421766	N
19:32	421994	A
19:33	422320	N
19:33	422603	N
19:34	422818	A
19:35	423164	N
19:36	423462	N
19:37	423767	N
19:37	424064	N
19:38	424339	N
19:39	424616	N
19:40	424893	N
19:41	425188	N
19:41	425491	N
19:42	425788	N
19:43	426078	N
19:44	426380	N
19:45	426661	N
19:45	426938	N
19:46	427225	N
19:47	427523	N
19:48	427827	N
19:49	428129	N
19:50	428413	N
19:50	428698	N
19:51	428992	N
19:52	429276	N
19:53	429558	N
19:54	429867	N
19:54	430165	N
19:55	430470	N
19:56	430754	N
19:57	431034	N
19:58	431315	N
19:58	431615	N
19:59	431910	N
20:00	432209	N
20:01	432509	N
20:02	432799	N
20:03	433082	N
20:03	433364	N
20:04	433648	N
20:05	433841	A
20:06	434211	N
20:06	434513	N
20:07	434810	N
20:08	435096	N
20:09	435370	N
20:10	435658	N
20:10	435951	N
20:11	436149	A
20:12	436512	N
20:13	436819	N
20:14	437118	N
20:15	437400	N
20:15	437682	N
20:16	437965	N
20:17	438268	N
20:18	438570	N
20:19	438865	N
20:19	439158	N
20:20	439454	N
20:21	439740	N
20:22	440022	N
20:23	440312	N
20:23	440622	N
20:24	440934	N
20:25	441230	N
20:26	441518	N
20:27	441814	N
20:28	442109	N
20:28	442406	N
20:29	442623	A
20:30	442992	N
20:31	443304	N
20:32	443606	N
20:33	443888	N
20:33	444175	N
20:34	444473	N
20:35	444705	A
20:36	445060	N
20:37	445362	N
20:37	445658	N
20:38	445948	N
20:39	446226	N
20:40	446507	N
20:41	446800	N
20:41	447104	N
20:42	447402	N
20:43	447695	N
20:44	447980	N
20:45	448264	N
20:45	448548	N
20:46	448834	N
20:47	449137	N
20:48	449441	N
20:49	449748	N
20:50	450038	N
20:50	450325	N
20:51	450607	N
20:52	450895	N
20:53	451193	N
20:54	451501	N
20:55	451805	N
20:55	452101	N
20:56	452390	N
20:57	452678	N
20:58	452959	N
20:59	453250	N
20:59	453545	N
21:00	453852	N
21:01	454154	N
21:02	454444	N
21:02	454651	A
21:03	454997	N
21:04	455293	N
21:05	455588	N
21:06	455888	N
21:07	456189	N
21:08	456487	N
21:08	456771	N
21:09	457045	N
21:10	457333	N
21:11	457634	N
21:12	457937	N
21:12	458168	A
21:13	458524	N
21:14	458816	N
21:15	459103	N
21:16	459380	N
21:16	459664	N
21:17	459966	N
21:18	460275	N
21:19	460571	N
21:20	460858	N
21:20	461148	N
21:21	461433	N
21:22	461721	N
21:23	462014	N
21:24	462314	N
21:25	462621	N
21:25	462919	N
21:26	463197	N
21:27	463481	N
21:28	463765	N
21:29	464049	N
21:29	464361	N
21:30	464664	N
21:31	464960	N
21:32	465257	N
21:33	465538	N
21:33	465820	N
21:34	466104	N
21:35	466404	N
21:36	466707	N
21:37	467010	N
21:38	467308	N
21:38	467589	N
21:39	467878	N
21:40	468164	N
21:41	468459	N
21:42	468762	N
21:42	469065	N
21:43	469363	N
21:44	469660	N
21:45	469942	N
21:46	470230	N
21:47	470530	N
21:47	470837	N
21:48	471139	N
21:49	471444	N
21:50	471727	N
21:51	472019	N
21:51	472304	N
21:52	472589	N
21:53	472887	N
21:54	473201	N
21:55	473498	N
21:56	473792	N
21:56	474074	N
21:57	474362	N
21:58	474652	N
21:59	474942	N
22:00	475237	N
22:00	475547	N
22:01	475851	N
22:02	476136	N
22:03	476417	N
22:04	476705	N
22:05	477000	N
22:05	477307	N
22:06	477604	N
22:07	477898	N
22:08	478195	N
22:09	478480	N
22:09	478757	N
22:10	479040	N
22:11	479332	N
22:12	479633	N
22:13	479931	N
22:13	480218	N
22:14	480494	N
22:15	480779	N
22:16	481057	N
22:17	481340	N
22:17	481641	N
22:18	481941	N
22:19	482239	N
22:20	482525	N
22:21	482801	N
22:21	483071	N
22:22	483350	N
22:23	483634	N
22:24	483930	N
22:25	484220	N
22:25	484507	N
22:26	484786	N
22:27	485073	N
22:28	485352	N
22:29	485641	N
22:29	485939	N
22:30	486253	N
22:31	486556	N
22:32	486844	N
22:33	487129	N
22:33	487423	N
22:34	487719	N
22:35	488018	N
22:36	488320	N
22:37	488635	N
22:38	488931	N
22:38	489214	N
22:39	489497	N
22:40	489788	N
22:41	490090	N
22:42	490393	N
22:43	490695	N
22:43	490994	N
22:44	491287	N
22:45	491570	N
22:46	491850	N
22:47	492145	N
22:47	492445	N
22:48	492750	N
22:49	493046	N
22:50	493340	N
22:51	493623	N
22:51	493914	N
22:52	494199	N
22:53	494491	N
22:54	494789	N
22:55	495085	N
22:56	495370	N
22:56	495649	N
22:57	495924	N
22:58	496201	N
22:59	496499	N
22:59	496712	A
23:00	497074	N
23:01	497376	N
23:02	497664	N
23:03	497945	N
23:03	498230	N
23:04	498517	N
23:05	498812	N
23:06	499114	N
23:07	499417	N
23:08	499701	N
23:08	499987	N
23:09	500268	N
23:10	500549	N
23:11	500847	N
23:12	501145	N
23:12	501448	N
23:13	501745	N
23:14	502039	N
23:15	502316	N
23:16	502601	N
23:16	502888	N
23:17	503191	N
23:18	503496	N
23:19	503794	N
23:20	504080	N
23:21	504372	N
23:21	504654	N
23:22	504936	N
23:23	505227	N
23:24	505528	N
23:25	505830	N
23:25	506125	N
23:26	506398	N
23:27	506679	N
23:28	506969	N
23:29	507256	N
23:29	507552	N
23:30	507855	N
23:31	508159	N
23:32	508455	N
23:33	508744	N
23:33	509019	N
23:34	509319	N
23:35	509623	N
23:36	509923	N
23:37	510220	N
23:38	510520	N
23:38	510804	N
23:39	511093	N
23:40	511371	N
23:41	511660	N
23:42	511970	N
23:42	512277	N
23:43	512567	N
23:44	512851	N
23:45	513135	N
23:46	513424	N
23:46	513719	N
23:47	514014	N
23:48	514318	N
23:49	514628	N
23:50	514919	N
23:51	515194	N
23:51	515476	N
23:52	515762	N
23:53	516065	N
23:54	516371	N
23:55	516667	N
23:56	516970	N
23:56	517266	N
23:57	517553	N
23:58	517832	N
23:59	518127	N
24:00	518426	N
24:00	518734	N
24:01	519028	N
24:02	519307	N
24:03	519594	N
24:04	519882	N
24:04	520149	N
24:05	520463	N
24:06	520768	N
24:07	520982	A
24:08	521342	N
24:08	521627	N
24:09	521913	N
24:10	522209	N
24:11	522511	N
24:12	522815	N
24:13	523116	N
24:13	523416	N
24:14	523708	N
24:15	523999	N
24:16	524279	N
24:17	524577	N
24:18	524890	N
24:18	525198	N
24:19	525492	N
24:20	525780	N
24:21	526064	N
24:22	526355	N
24:22	526646	N
24:23	526941	N
24:24	527243	N
24:25	527549	N
24:26	527838	N
24:26	528118	N
24:27	528402	N
24:28	528689	N
24:29	528991	N
24:30	529293	N
24:31	529599	N
24:31	529897	N
24:32	530191	N
24:33	530471	N
24:34	530762	N
24:35	531057	N
24:35	531358	N
24:36	531668	N
24:37	531967	N
24:38	532257	N
24:39	532544	N
24:40	532828	N
24:40	533121	N
24:41	533416	N
24:42	533719	N
24:43	534012	N
24:44	534307	N
24:44	534592	N
24:45	534873	N
24:46	535161	N
24:47	535459	N
24:48	535768	N
24:49	536067	N
24:49	536364	N
24:50	536644	N
24:51	536930	N
24:52	537212	N
24:53	537505	N
24:53	537810	N
24:54	538115	N
24:55	538421	N
24:56	538707	N
24:57	538993	N
24:57	539278	N
24:58	539575	N
24:59	539874	N
25:00	540172	N
25:01	540472	N
25:02	540768	N
25:02	541052	N
25:03	541334	N
25:04	541616	N
25:05	541916	N
25:06	542226	N
25:07	542529	N
25:07	542825	N
25:08	543116	N
25:09	543407	N
25:10	543689	N
25:11	543983	N
25:11	544285	N
25:12	544590	N
25:13	544895	N
25:14	545182	N
25:15	545455	N
25:15	545741	N
25:16	546022	N
25:17	546306	N
25:18	546599	N
25:18	546792	V
25:19	547199	N
25:20	547482	N
25:21	547758	N
25:22	548032	N
25:23	548334	N
25:23	548632	N
25:24	548926	N
25:25	549217	N
25:26	549502	N
25:27	549784	N
25:27	550070	N
25:28	550348	N
25:29	550639	N
25:30	550952	N
25:31	551253	N
25:32	551532	N
25:32	551815	N
25:33	552096	N
25:34	552385	N
25:35	552680	N
25:36	552974	N
25:36	553282	N
25:37	553588	N
25:38	553876	N
25:39	554154	N
25:40	554439	N
25:40	554723	N
25:41	555026	N
25:42	555323	N
25:43	555613	N
25:44	555914	N
25:45	556203	N
25:45	556486	N
25:46	556765	N
25:47	557056	N
25:48	557361	N
25:49	557667	N
25:49	557962	N
25:50	558238	N
25:51	558527	N
25:52	558813	N
25:53	559102	N
25:53	559395	N
25:54	559695	N
25:55	559997	N
25:56	560295	N
25:57	560576	N
25:57	560846	N
25:58	561141	N
25:59	561435	N
26:00	561732	N
26:01	562019	N
26:01	562308	N
26:02	562591	N
26:03	562812	A
26:04	563141	N
26:05	563423	N
26:05	563731	N
26:06	564030	N
26:07	564320	N
26:08	564601	N
26:09	564883	N
26:09	565164	N
26:10	565452	N
26:11	565741	N
26:12	566041	N
26:12	566259	A
26:13	566615	N
26:14	566899	N
26:15	567185	N
26:16	567379	A
26:17	567721	N
26:17	568027	N
26:18	568326	N
26:19	568624	N
26:20	568919	N
26:21	569204	N
26:21	569482	N
26:22	569762	N
26:23	570058	N
26:24	570366	N
26:25	570668	N
26:25	570957	N
26:26	571246	N
26:27	571538	N
26:28	571831	N
26:29	572122	N
26:30	572428	N
26:30	572730	N
26:31	573040	N
26:32	573328	N
26:33	573608	N
26:34	573893	N
26:34	574193	N
26:35	574429	A
26:36	574786	N
26:37	575095	N
26:38	575387	N
26:39	575678	N
26:39	575959	N
26:40	576248	N
26:41	576551	N
26:42	576862	N
26:43	577162	N
26:44	577456	N
26:44	577741	N
26:45	578025	N
26:46	578310	N
26:47	578600	N
26:48	578901	N
26:48	579204	N
26:49	579448	A
26:50	579790	N
26:51	580074	N
26:52	580357	N
26:52	580648	N
26:53	580947	N
26:54	581246	N
26:55	581543	N
26:56	581834	N
26:56	582119	N
26:57	582395	N
26:58	582668	N
26:59	582919	N
27:00	583239	N
27:00	583539	N
27:01	583821	N
27:02	584097	N
27:03	584363	N
27:03	584635	N
27:04	584903	N
27:05	585175	N
27:06	585454	N
27:07	585731	N
27:07	586011	N
27:08	586275	N
27:09	586525	N
27:09	586771	N
27:10	587030	N
27:11	587299	N
27:12	587572	N
27:12	587843	N
27:13	588113	N
27:14	588377	N
27:15	588643	N
27:15	588905	N
27:16	589177	N
27:17	589454	N
27:18	589747	N
27:19	590040	N
27:19	590316	N
27:20	590588	N
27:21	590863	N
27:22	591143	N
27:22	591417	N
27:23	591706	N
27:24	591999	N
27:25	592288	N
27:26	592571	N
27:26	592853	N
27:27	593068	A
27:28	593387	N
27:29	593683	N
27:29	593990	N
27:30	594280	N
27:31	594563	N
27:32	594855	N
27:33	595127	N
27:33	595402	N
27:34	595690	N
27:35	595992	N
27:36	596278	N
27:37	596584	N
27:37	596879	N
27:38	597136	N
27:39	597402	N
27:40	597670	N
27:40	597925	N
27:41	598186	N
27:42	598458	N
27:43	598713	N
27:43	598969	N
27:44	599222	N
27:45	599468	N
27:45	599703	N
27:46	599952	N
27:47	600214	N
27:48	600483	N
27:48	600739	N
27:49	601011	N
27:50	601273	N
27:50	601537	N
27:51	601799	N
27:52	602064	N
27:53	602330	N
27:53	602610	N
27:54	602893	N
27:55	603179	N
27:56	603455	N
27:57	603722	N
27:57	603989	N
27:58	604277	N
27:59	604564	N
28:00	604844	N
28:00	605148	N
28:01	605459	N
28:02	605737	N
28:03	606008	N
28:04	606293	N
28:04	606587	N
28:05	606880	N
28:06	607178	N
28:07	607475	N
28:08	607766	N
28:09	608043	N
28:09	608309	N
28:10	608576	N
28:11	608853	N
28:12	609136	N
28:12	609425	N
28:13	609715	N
28:14	609987	N
28:15	610262	N
28:15	610544	N
28:16	610823	N
28:17	611108	N
28:18	611399	N
28:19	611695	N
28:19	611986	N
28:20	612263	N
28:21	612539	N
28:22	612819	N
28:23	613108	N
28:23	613399	N
28:24	613693	N
28:25	613983	N
28:26	614259	N
28:27	614539	N
28:27	614816	N
28:28	615089	N
28:29	615370	N
28:30	615676	N
28:31	615968	N
28:31	616250	N
28:32	616526	N
28:33	616803	N
28:34	617086	N
28:34	617366	N
28:35	617655	N
28:36	617949	N
28:37	618248	N
28:38	618528	N
28:38	618804	N
28:39	619081	N
28:40	619362	N
28:41	619653	N
28:42	619951	N
28:42	620249	N
28:43	620541	N
28:44	620826	N
28:45	621102	N
28:46	621379	N
28:46	621661	N
28:47	621944	N
28:48	622247	N
28:49	622541	N
28:50	622823	N
28:50	623089	N
28:51	623367	N
28:52	623638	N
28:53	623917	N
28:53	624191	N
28:54	624482	N
28:55	624765	N
28:56	625048	N
28:56	625309	N
28:57	625579	N
28:58	625853	N
28:59	626138	N
29:00	626427	N
29:00	626715	N
29:01	627000	N
29:02	627281	N
29:03	627555	N
29:03	627827	N
29:04	628103	N
29:05	628391	N
29:06	628688	N
29:07	628981	N
29:07	629171	A
29:08	629494	N
29:09	629761	N
29:10	630027	N
29:10	630289	N
29:11	630561	N
29:12	630836	N
29:13	631110	N
29:13	631377	N
29:14	631636	N
29:15	631898	N
29:15	632156	N
29:16	632414	N
29:17	632688	N
29:18	632958	N
29:18	633229	N
29:19	633498	N
29:20	633768	N
29:21	634028	N
29:21	634283	N
29:22	634545	N
29:23	634826	N
29:24	635107	N
29:24	635394	N
29:25	635684	N
29:26	635966	N
29:27	636238	N
29:28	636520	N
29:28	636811	N
29:29	637105	N
29:30	637399	N
29:31	637704	N
29:32	637997	N
29:33	638282	N
29:33	638560	N
29:34	638846	N
29:35	639140	N
29:36	639446	N
29:37	639744	N
29:37	640039	N
29:38	640329	N
29:39	640615	N
29:40	640900	N
29:41	641178	N
29:41	641479	N
29:42	641777	N
29:43	642065	N
29:44	642337	N
29:45	642614	N
29:45	642887	N
29:46	643164	N
29:47	643439	N
29:48	643721	N
29:48	644005	N
29:49	644286	N
29:50	644547	N
29:51	644807	N
29:51	645063	N
29:52	645320	N
29:53	645581	N
29:54	645863	N
29:54	646132	N
29:55	646393	N
29:56	646658	N
29:56	646916	N
29:57	647168	N
29:58	647414	N
29:59	647672	N
29:59	647934	N
30:00	648203	N
30:01	648477	N
30:02	648733	N
30:02	648978	N
30:03	649232	N
30:04	649484	N
30:04	649734	N
30:05	649991	N
