0:00	83	N
0:01	396	N
0:01	711	N
0:02	1032	N
0:03	1368	N
0:04	1712	N
0:05	2036	N
0:06	2349	N
0:07	2662	N
0:08	2972	N
0:09	3301	N
0:10	3631	N
0:11	3960	N
0:11	4283	N
0:12	4609	N
0:13	4928	N
0:14	5241	N
0:15	5569	N
0:16	5898	N
0:17	6223	N
0:18	6528	N
0:18	6830	N
0:19	7143	N
0:20	7463	N
0:21	7786	N
0:22	8105	N
0:23	8414	N
0:24	8721	N
0:25	9026	N
0:25	9321	N
0:26	9628	N
0:27	9953	N
0:28	10281	N
0:29	10590	N
0:30	10892	N
0:31	11185	N
0:31	11470	N
0:32	11760	N
0:33	12050	N
0:34	12338	N
0:35	12621	N
0:35	12911	N
0:36	13183	N
0:37	13457	N
0:38	13740	N
0:38	14030	N
0:39	14333	N
0:40	14640	N
0:41	14923	N
0:42	15195	N
0:42	15474	N
0:43	15760	N
0:44	16051	N
0:45	16351	N
0:46	16655	N
0:47	16956	N
0:47	17250	N
0:48	17532	N
0:49	17814	N
0:50	18099	N
0:51	18396	N
0:51	18687	N
0:52	18977	N
0:53	19267	N
0:54	19558	N
0:55	19860	N
0:56	20173	N
0:56	20493	N
0:57	20822	N
0:58	21166	N
0:59	21498	N
1:00	21808	N
1:01	22130	N
1:02	22451	N
1:03	22782	N
1:04	23126	N
1:05	23457	N
1:06	23774	N
1:06	24090	N
1:07	24404	N
1:08	24720	N
1:09	25040	N
1:10	25374	N
1:11	25704	N
1:12	26008	N
1:13	26310	N
1:13	26637	N
1:14	26967	N
1:15	27303	N
1:16	27621	N
1:17	27934	N
1:18	28243	N
1:19	28559	N
1:20	28861	N
1:20	29155	N
1:21	29467	N
1:22	29782	N
1:23	30088	N
1:24	30387	N
1:25	30688	N
1:26	30985	N
1:26	31310	N
1:27	31634	N
1:28	31947	N
1:29	32262	N
1:30	32565	N
1:31	32866	N
1:32	33165	N
1:32	33467	N
1:33	33777	N
1:34	34092	N
1:35	34391	N
1:36	34679	N
1:37	34980	N
1:38	35288	N
1:38	35598	N
1:39	35912	N
1:40	36217	N
1:41	36529	N
1:42	36837	N
1:43	37141	N
1:44	37450	N
1:44	37773	N
1:45	38099	N
1:46	38430	N
1:47	38748	N
1:48	39059	N
1:49	39376	N
1:50	39692	N
1:51	40013	N
1:52	40340	N
1:52	40603	~
1:52	40668	N
1:53	40884	|
1:53	40976	N
1:54	41265	N
1:55	41543	N
1:56	41829	N
1:56	41930	~
1:57	42126	N
1:57	42421	N
1:58	42714	N
1:59	42990	N
2:00	43268	N
2:00	43546	N
2:01	43816	N
2:02	44095	N
2:03	44387	N
2:04	44676	N
2:04	44977	N
2:05	45270	N
2:06	45553	N
2:07	45839	N
2:08	46138	N
2:09	46440	N
2:09	46750	N
2:10	47060	N
2:11	47359	N
2:12	47655	N
2:13	47944	N
2:13	48228	N
2:14	48517	N
2:15	48821	N
2:16	49125	N
2:17	49422	N
2:18	49699	N
2:18	49978	N
2:19	50248	N
2:20	50527	N
2:21	50816	N
2:21	51114	N
2:22	51400	N
2:23	51687	N
2:24	51965	N
2:25	52239	N
2:25	52512	N
2:26	52794	N
2:27	53087	N
2:28	53381	N
2:29	53667	N
2:29	53947	N
2:30	54221	N
2:31	54517	N
2:32	54814	N
2:33	55107	N
2:33	55405	N
2:34	55710	N
2:35	56011	N
2:36	56307	N
2:37	56607	N
2:38	56918	N
2:39	57252	N
2:39	57592	N
2:40	57928	N
2:41	58245	N
2:42	58542	N
2:43	58845	N
2:44	59166	N
2:45	59490	N
2:46	59822	N
2:47	60156	N
2:47	60477	N
2:48	60784	N
2:49	61089	N
2:50	61395	N
2:51	61727	N
2:52	62058	N
2:53	62359	N
2:54	62672	N
2:54	62994	N
2:55	63096	|
2:55	63315	N
2:56	63414	|
2:56	63631	N
2:57	63967	N
2:58	64292	N
2:59	64627	N
3:00	64929	N
3:01	65245	N
3:02	65576	N
3:03	65906	N
3:03	66225	N
3:04	66564	N
3:05	66890	N
3:06	67198	N
3:07	67510	N
3:08	67832	N
3:09	68164	N
3:10	68505	N
3:11	68830	N
3:12	69136	N
3:12	69446	N
3:13	69757	N
3:14	70082	N
3:15	70417	N
3:16	70752	N
3:17	71088	N
3:18	71400	N
3:19	71710	N
3:20	72021	N
3:20	72350	N
3:21	72680	N
3:22	73002	N
3:23	73307	N
3:24	73600	N
3:25	73912	N
3:26	74229	N
3:27	74556	N
3:28	74896	N
3:28	75213	N
3:29	75537	N
3:30	75854	N
3:31	76167	N
3:32	76493	N
3:33	76831	N
3:34	77161	N
3:35	77498	N
3:36	77827	N
3:37	78147	N
3:37	78474	N
3:38	78815	N
3:39	79159	N
3:40	79516	N
3:41	79853	N
3:42	80161	N
3:43	80464	N
3:44	80773	N
3:45	81107	N
3:46	81452	N
3:47	81790	N
3:48	82113	N
3:49	82443	N
3:49	82773	N
3:50	83107	N
3:51	83433	N
3:52	83777	N
3:53	84118	N
3:54	84427	N
3:55	84735	N
3:56	85072	N
3:57	85418	N
3:58	85752	N
3:59	86068	N
3:59	86372	N
4:00	86683	N
4:01	86992	N
4:02	87305	N
4:03	87654	N
4:04	88000	N
4:05	88338	N
4:06	88667	N
4:07	88999	N
4:08	89345	N
4:09	89699	N
4:10	90060	N
4:11	90399	N
4:12	90737	N
4:12	91069	N
4:13	91397	N
4:14	91743	N
4:15	92094	N
4:16	92448	N
4:17	92791	N
4:18	93131	N
4:19	93471	N
4:20	93817	N
4:21	94157	N
4:22	94517	N
4:23	94869	N
4:24	95199	N
4:25	95528	N
4:26	95864	N
4:27	96227	N
4:28	96589	N
4:29	96941	N
4:30	97284	N
4:31	97612	N
4:32	97950	N
4:33	98290	N
4:34	98647	N
4:35	99012	N
4:35	99358	N
4:36	99692	N
4:37	100016	N
4:38	100361	N
4:39	100722	N
4:40	101086	N
4:41	101426	N
4:42	101771	N
4:43	102113	N
4:44	102456	N
4:45	102825	N
4:46	103197	N
4:47	103555	N
4:48	103881	N
4:49	104210	N
4:50	104548	N
4:51	104883	N
4:52	105199	N
4:53	105532	N
4:54	105852	N
4:54	106182	N
4:55	106505	N
4:56	106842	N
4:57	107208	N
4:58	107567	N
4:59	107918	N
5:00	108253	N
5:01	108574	N
5:02	108918	N
5:03	109274	N
5:04	109634	N
5:05	109998	N
5:06	110346	N
5:07	110691	N
5:08	111047	N
5:09	111410	N
5:10	111791	N
5:11	112165	N
5:12	112522	N
5:13	112880	N
5:14	113245	N
5:15	113615	N
5:16	113985	N
5:17	114354	N
5:18	114681	|
5:18	114705	Q
5:19	115062	N
5:19	115124	~
5:20	115478	~
5:21	115742	N
5:22	116091	N
5:23	116436	N
5:24	116769	N
5:25	117098	N
5:26	117433	N
5:27	117779	N
5:28	118144	N
5:29	118512	N
5:30	118853	N
5:31	119177	N
5:31	119512	N
5:32	119845	N
5:33	120171	N
5:34	120502	N
5:35	120823	N
5:36	121148	N
5:37	121458	N
5:38	121760	N
5:39	122091	N
5:40	122446	N
5:41	122802	N
5:42	123145	N
5:42	123475	N
5:43	123823	N
5:44	124179	N
5:45	124536	N
5:46	124893	N
5:47	125233	N
5:48	125563	N
5:49	125889	N
5:50	126227	N
5:51	126592	N
5:52	126953	N
5:53	127298	N
5:54	127636	N
5:55	127968	N
5:56	128290	N
5:57	128631	N
5:58	128985	N
5:59	129352	N
6:00	129694	N
6:01	130007	N
6:02	130333	N
6:02	130649	N
6:03	130989	N
6:04	131319	N
6:05	131647	N
6:06	131957	N
6:07	132266	N
6:08	132576	N
6:09	132911	N
6:10	133273	N
6:11	133649	N
6:12	134018	N
6:13	134365	N
6:14	134721	N
6:15	135105	N
6:15	135299	A
6:17	135725	N
6:18	136087	N
6:18	136434	N
6:19	136785	N
6:20	137137	N
6:21	137507	N
6:23	137887	N
6:23	138232	N
6:24	138581	N
6:25	138934	N
6:26	139310	N
6:28	139689	N
6:29	140063	N
6:30	140433	N
6:31	140775	N
6:32	141126	N
6:33	141494	N
6:34	141873	N
6:35	142251	N
6:36	142610	N
6:37	142948	N
6:38	143307	N
6:39	143680	N
6:40	144060	N
6:41	144440	N
6:42	144808	N
6:43	145156	N
6:44	145507	N
6:45	145878	N
6:46	146249	N
6:47	146604	N
6:48	146961	N
6:49	147315	N
6:50	147671	N
6:51	148051	N
6:52	148435	N
6:53	148811	N
6:54	149166	N
6:55	149521	N
6:56	149881	N
6:57	150259	N
6:58	150649	N
6:59	151012	N
7:00	151367	N
7:01	151729	N
7:02	152092	N
7:03	152470	N
7:04	152861	N
7:05	153243	N
7:06	153598	N
7:07	153960	N
7:08	154344	N
7:09	154722	N
7:10	155101	N
7:11	155477	N
7:12	155837	N
7:13	156187	N
7:14	156555	N
7:15	156944	N
7:17	157323	N
7:17	157672	N
7:18	158028	N
7:19	158385	N
7:20	158755	N
7:21	159118	N
7:23	159489	N
7:24	159866	N
7:25	160216	N
7:26	160573	N
7:27	160951	N
7:28	161334	N
7:29	161717	N
7:30	162087	N
7:31	162455	N
7:32	162819	N
7:33	163204	N
7:34	163595	N
7:35	163972	N
7:36	164333	N
7:37	164692	N
7:38	165053	N
7:39	165441	N
7:40	165832	N
7:41	166203	N
7:42	166558	N
7:43	166920	N
7:44	167293	N
7:45	167654	N
7:46	168030	N
7:47	168389	N
7:48	168728	N
7:49	169053	N
7:50	169391	N
7:51	169764	N
7:52	170128	N
7:53	170481	N
7:54	170844	N
7:55	171192	N
7:56	171538	N
7:57	171902	N
7:58	172272	N
7:59	172645	N
8:00	172991	N
8:01	173329	N
8:02	173700	N
8:03	174087	N
8:04	174455	N
8:05	174833	N
8:06	175192	N
8:07	175545	N
8:08	175914	N
8:09	176286	N
8:10	176664	N
8:11	177032	N
8:12	177378	N
8:13	177697	N
8:14	178030	N
8:15	178388	N
8:16	178752	N
8:17	179130	N
8:18	179490	N
8:19	179836	N
8:20	180214	N
8:21	180597	N
8:22	180975	N
8:23	181342	N
8:24	181691	N
8:25	182042	N
8:26	182387	N
8:27	182733	N
8:28	183074	N
8:29	183425	N
8:30	183767	N
8:31	184105	N
8:32	184448	N
8:33	184806	N
8:34	185157	N
8:35	185494	N
8:36	185822	N
8:37	186153	N
8:38	186490	N
8:39	186846	N
8:40	187206	N
8:41	187570	N
8:41	187895	N
8:42	188208	N
8:43	188530	N
8:44	188860	N
8:45	189211	N
8:46	189561	N
8:47	189900	N
8:48	190236	N
8:49	190563	N
8:50	190882	N
8:51	191226	N
8:52	191580	N
8:53	191936	N
8:54	192263	N
8:54	192586	N
8:55	192918	N
8:56	193257	N
8:57	193605	N
8:58	193949	N
8:59	194285	N
9:00	194622	N
9:01	194953	N
9:02	195285	N
9:03	195636	N
9:04	196004	N
9:05	196365	N
9:06	196702	N
9:07	197045	N
9:08	197391	N
9:09	197734	N
9:10	198083	N
9:11	198433	N
9:12	198780	N
9:13	199117	N
9:14	199457	N
9:15	199810	N
9:16	200168	N
9:17	200524	N
9:17	200870	N
9:18	201213	N
9:19	201550	N
9:20	201895	N
9:21	202242	N
9:22	202598	N
9:23	202960	N
9:24	203309	N
9:25	203648	N
9:26	203997	N
9:27	204344	N
9:28	204689	N
9:29	205033	N
9:30	205365	N
9:31	205697	N
9:32	206047	N
9:33	206419	N
9:34	206785	N
9:35	207160	N
9:36	207520	N
9:37	207879	N
9:38	208235	N
9:39	208623	N
9:40	209015	N
9:41	209377	N
9:42	209746	N
9:43	210109	N
9:44	210473	N
9:45	210848	N
9:46	211239	N
9:47	211621	N
9:48	211976	N
9:49	212351	N
9:50	212726	N
9:51	213095	N
9:52	213462	N
9:53	213813	N
9:54	214152	N
9:55	214496	N
9:56	214847	N
9:57	215234	N
9:58	215567	A
9:59	215981	N
10:00	216337	N
10:01	216689	N
10:02	217038	N
10:03	217389	N
10:04	217719	N
10:05	218060	N
10:06	218391	N
10:07	218712	N
10:08	219066	N
10:09	219442	N
10:10	219819	N
10:11	220183	N
10:12	220549	N
10:13	220916	N
10:14	221281	N
10:15	221668	N
10:16	222038	N
10:17	222388	N
10:18	222729	N
10:19	223064	N
10:20	223417	N
10:21	223782	N
10:22	224136	N
10:23	224485	N
10:24	224826	N
10:25	225171	N
10:26	225515	N
10:27	225889	N
10:28	226266	N
10:29	226634	N
10:30	226996	N
10:31	227350	N
10:32	227704	N
10:33	228086	N
10:34	228466	N
10:35	228826	N
10:36	229191	N
10:37	229550	N
10:38	229900	N
10:39	230272	N
10:40	230660	N
10:41	231032	N
10:42	231373	N
10:43	231734	N
10:44	232104	N
10:45	232476	N
10:46	232853	N
10:47	233228	N
10:48	233593	N
10:49	233939	N
10:50	234309	N
10:51	234705	N
10:53	235084	N
10:54	235452	N
10:55	235812	N
10:56	236174	N
10:57	236543	N
10:58	236936	N
10:59	237325	N
11:00	237680	N
11:01	238027	N
11:02	238382	N
11:03	238734	N
11:04	239108	N
11:05	239482	N
11:06	239829	N
11:07	240176	N
11:08	240536	N
11:09	240904	N
11:10	241281	N
11:11	241663	N
11:12	242035	N
11:13	242385	N
11:14	242751	N
11:15	243139	N
11:16	243527	N
11:17	243902	N
11:18	244268	N
11:19	244639	N
11:20	244994	N
11:21	245374	N
11:22	245769	N
11:23	246139	N
11:24	246488	N
11:25	246844	N
11:26	247224	N
11:27	247598	N
11:28	247975	N
11:29	248351	N
11:30	248707	N
11:31	249045	N
11:32	249406	N
11:33	249782	N
11:34	250145	N
11:35	250507	N
11:36	250852	N
11:37	251203	N
11:38	251550	N
11:39	251919	N
11:40	252299	N
11:41	252660	N
11:42	253018	N
11:43	253374	N
11:44	253744	N
11:45	254123	N
11:46	254501	N
11:47	254873	N
11:48	255220	N
11:49	255586	N
11:51	255962	N
11:52	256342	N
11:53	256732	N
11:54	257109	N
11:55	257458	N
11:56	257823	N
11:57	258207	N
11:58	258585	N
11:59	258958	N
12:00	259325	N
12:01	259682	N
12:02	260022	N
12:03	260376	N
12:04	260752	N
12:05	261126	N
12:06	261478	N
12:07	261827	N
12:08	262186	N
12:09	262549	N
12:10	262922	N
12:11	263297	N
12:12	263646	N
12:13	264002	N
12:14	264356	N
12:15	264714	N
12:16	265097	N
12:17	265470	N
12:18	265817	N
12:19	266167	N
12:20	266533	N
12:21	266899	N
12:22	267268	N
12:23	267637	N
12:24	267998	N
12:25	268346	N
12:26	268694	N
12:27	269071	N
12:28	269452	N
12:29	269814	N
12:30	270171	N
12:31	270535	N
12:32	270887	N
12:33	271259	N
12:34	271643	N
12:35	272006	N
12:36	272361	N
12:37	272714	N
12:38	273077	N
12:39	273448	N
12:40	273821	N
12:41	274190	N
12:42	274538	N
12:43	274895	N
12:44	275261	N
12:45	275621	N
12:46	276002	N
12:47	276378	N
12:48	276725	N
12:49	277069	N
12:50	277433	N
12:51	277818	N
12:52	278180	N
12:53	278539	N
12:54	278906	N
12:55	279255	N
12:56	279604	N
12:57	279983	N
12:58	280373	N
12:59	280734	N
13:00	281089	N
13:01	281454	N
13:02	281821	N
13:03	282192	N
13:04	282574	N
13:05	282944	N
13:06	283296	N
13:07	283658	N
13:08	284022	N
13:10	284406	N
13:11	284778	N
13:12	285147	N
13:13	285501	N
13:14	285850	N
13:15	286222	N
13:16	286598	N
13:17	286965	N
13:18	287326	N
13:19	287680	N
13:20	288032	N
13:21	288394	N
13:22	288785	N
13:23	289149	N
13:24	289506	N
13:25	289868	N
13:26	290214	N
13:27	290574	N
13:28	290953	N
13:29	291318	N
13:30	291673	N
13:31	292025	N
13:32	292374	N
13:33	292739	N
13:34	293117	N
13:35	293493	N
13:36	293844	N
13:37	294195	N
13:38	294552	N
13:39	294909	N
13:40	295270	N
13:41	295638	N
13:42	295989	N
13:43	296335	N
13:44	296687	N
13:45	297070	N
13:46	297445	N
13:47	297807	N
13:48	298183	N
13:49	298538	N
13:50	298892	N
13:51	299267	N
13:52	299625	N
13:53	299989	N
13:54	300325	N
13:55	300639	N
13:56	300970	N
13:56	301301	N
13:57	301657	N
13:58	302025	N
13:59	302393	N
14:00	302745	N
14:01	303101	N
14:02	303473	N
14:04	303862	N
14:05	304239	N
14:06	304611	N
14:07	304977	N
14:08	305338	N
14:09	305705	N
14:10	306081	N
14:11	306471	N
14:12	306832	N
14:13	307189	N
14:14	307544	N
14:15	307908	N
14:16	308294	Q
14:17	308637	N
14:18	308980	N
14:19	309327	N
14:20	309668	N
14:21	310028	N
14:22	310407	N
14:23	310785	N
14:24	311133	N
14:25	311477	N
14:26	311824	N
14:27	312172	N
14:28	312539	N
14:29	312905	N
14:30	313248	N
14:31	313594	N
14:32	313943	N
14:33	314287	N
14:34	314650	N
14:34	314986	N
14:35	315305	N
14:36	315612	N
14:37	315923	N
14:38	316234	N
14:39	316564	N
14:40	316902	N
14:41	317232	N
14:42	317585	N
14:43	317928	N
14:44	318279	N
14:45	318636	N
14:46	319018	N
14:47	319400	N
14:48	319760	N
14:49	320107	N
14:50	320468	N
14:51	320838	N
14:52	321220	N
14:53	321584	N
14:54	321949	N
14:55	322301	N
14:56	322648	N
14:57	323014	N
14:58	323392	N
14:59	323761	N
15:00	324112	N
15:01	324455	N
15:02	324815	N
15:03	325182	N
15:04	325547	N
15:05	325912	N
15:06	326257	N
15:07	326571	N
15:08	326884	N
15:08	327202	N
15:09	327555	N
15:10	327916	N
15:11	328268	N
15:12	328618	N
15:13	328973	N
15:14	329339	N
15:15	329721	N
15:16	330090	N
15:17	330465	N
15:18	330826	N
15:19	331197	N
15:21	331574	N
15:22	331952	N
15:23	332321	N
15:24	332688	N
15:25	333051	N
15:26	333405	N
15:27	333742	N
15:28	334110	N
15:29	334457	N
15:29	334785	N
15:30	335095	N
15:31	335399	N
15:32	335709	N
15:33	336019	N
15:34	336345	N
15:35	336669	N
15:36	336994	N
15:36	337310	N
15:37	337624	N
15:38	337951	N
15:39	338300	N
15:40	338660	N
15:41	339015	N
15:42	339361	N
15:43	339724	N
15:44	340072	N
15:45	340434	N
15:46	340785	N
15:47	341115	N
15:48	341442	N
15:49	341773	N
15:50	342124	N
15:51	342506	N
15:52	342888	N
15:53	343268	N
15:54	343635	N
15:55	344007	N
15:56	344378	N
15:57	344746	N
15:58	345124	N
15:59	345487	N
16:00	345827	N
16:01	346154	N
16:02	346497	N
16:03	346860	N
16:04	347205	N
16:05	347527	N
16:06	347857	N
16:07	348190	N
16:08	348520	N
16:09	348868	N
16:10	349228	N
16:11	349593	N
16:12	349930	N
16:12	350239	N
16:13	350538	N
16:14	350842	N
16:15	351149	N
16:16	351455	N
16:17	351779	N
16:18	352101	N
16:19	352441	N
16:19	352786	N
16:20	353151	N
16:22	353534	N
16:23	353898	N
16:24	354250	N
16:24	354580	N
16:25	354909	N
16:26	355232	N
16:27	355573	N
16:28	355930	N
16:29	356292	N
16:30	356646	N
16:31	356994	N
16:32	357360	N
16:33	357744	N
16:34	358129	N
16:35	358498	N
16:36	358862	N
16:37	359220	N
16:38	359579	N
16:39	359959	N
16:40	360333	N
16:41	360700	N
16:42	361031	N
16:43	361361	N
16:44	361717	N
16:45	362057	N
16:46	362408	N
16:47	362743	N
16:48	363048	N
16:49	363346	N
16:50	363642	N
16:50	363938	N
16:51	364267	N
16:52	364619	N
16:53	364954	N
16:54	365270	N
16:55	365582	N
16:56	365913	N
16:57	366275	N
16:58	366653	N
16:59	367036	N
17:00	367413	N
17:01	367782	N
17:02	368156	N
17:03	368549	N
17:04	368944	N
17:05	369317	N
17:06	369656	N
17:07	370013	N
17:08	370370	N
17:09	370728	N
17:10	371092	N
17:11	371450	N
17:12	371803	N
17:13	372148	N
17:14	372501	N
17:15	372878	N
17:16	373238	N
17:17	373594	N
17:18	373943	N
17:19	374300	N
17:20	374661	N
17:21	375032	N
17:22	375413	N
17:23	375773	N
17:24	376122	N
17:25	376474	N
17:26	376836	N
17:27	377205	N
17:28	377567	N
17:29	377925	N
17:30	378285	N
17:31	378624	N
17:32	378972	N
17:33	379345	N
17:34	379720	N
17:35	380074	N
17:36	380414	N
17:37	380756	N
17:38	381119	N
17:39	381465	N
17:40	381795	N
17:41	382141	N
17:42	382468	N
17:43	382796	N
17:44	383121	N
17:45	383468	N
17:46	383844	N
17:47	384196	N
17:48	384547	N
17:49	384894	N
17:50	385244	N
17:51	385605	N
17:52	385980	N
17:53	386357	N
17:54	386715	N
17:55	387068	N
17:56	387421	N
17:57	387767	N
17:58	388135	N
17:59	388475	N
17:59	388796	N
18:00	389107	N
18:01	389432	N
18:02	389769	N
18:03	390117	N
18:04	390466	N
18:05	390823	N
18:06	391175	N
18:07	391523	N
18:08	391875	N
18:09	392254	N
18:10	392627	N
18:11	392980	N
18:12	393321	N
18:13	393673	N
18:14	394029	N
18:15	394391	N
18:16	394773	N
18:17	395129	N
18:18	395458	N
18:19	395801	N
18:20	396151	N
18:21	396525	N
18:22	396897	N
18:23	397267	N
18:24	397622	N
18:25	397965	N
18:26	398314	N
18:27	398682	N
18:28	399045	N
18:29	399411	N
18:30	399764	N
18:31	400112	N
18:32	400450	N
18:33	400801	N
18:34	401147	N
18:35	401490	N
18:36	401828	N
18:37	402177	N
18:38	402534	N
18:39	402897	N
18:40	403282	N
18:41	403660	N
18:42	404030	N
18:43	404381	N
18:44	404750	N
18:45	405129	N
18:46	405501	N
18:47	405885	N
18:48	406249	N
18:49	406605	N
18:50	406957	N
18:51	407339	N
18:52	407727	N
18:53	408088	N
18:54	408451	N
18:55	408807	N
18:56	409155	N
18:57	409529	N
18:58	409910	N
18:59	410279	N
19:00	410630	N
19:01	410980	N
19:02	411331	N
19:03	411707	N
19:04	412079	N
19:05	412439	N
19:06	412792	N
19:07	413149	N
19:08	413498	N
19:09	413863	N
19:10	414254	N
19:11	414615	N
19:12	414961	N
19:13	415317	N
19:14	415669	N
19:15	416041	N
19:16	416410	N
19:17	416769	N
19:18	417123	N
19:19	417469	N
19:20	417816	N
19:21	418183	N
19:22	418563	N
19:23	418916	N
19:24	419265	N
19:25	419621	N
19:26	419970	N
19:27	420341	N
19:28	420699	N
19:29	421066	N
19:30	421420	N
19:31	421761	N
19:32	422113	N
19:33	422482	N
19:34	422859	N
19:35	423215	N
19:36	423553	N
19:37	423890	N
19:38	424229	N
19:39	424560	N
19:40	424893	N
19:41	425240	N
19:42	425583	N
19:43	425920	N
19:44	426265	N
19:45	426620	N
19:46	427004	N
19:47	427378	N
19:48	427734	N
19:49	428093	N
19:50	428437	N
19:51	428796	N
19:52	429173	N
19:53	429554	N
19:54	429908	N
19:55	430258	N
19:56	430623	N
19:57	430983	N
19:58	431354	N
19:59	431723	N
20:00	432069	N
20:01	432416	N
20:02	432756	N
20:03	433091	N
20:04	433453	N
20:05	433815	N
20:06	434163	N
20:06	434498	N
20:07	434851	N
20:08	435217	N
20:09	435584	N
20:10	435957	N
20:12	436331	N
20:12	436675	N
20:13	437018	N
20:14	437384	N
20:16	437767	N
20:17	438134	N
20:18	438481	N
20:18	438829	N
20:19	439175	N
20:20	439525	N
20:21	439877	N
20:22	440232	N
20:23	440583	N
20:24	440925	N
20:25	441254	N
20:26	441604	N
20:27	441953	N
20:28	442311	N
20:29	442650	N
20:30	442967	N
20:31	443289	N
20:32	443607	N
20:33	443939	N
20:34	444298	N
20:35	444646	N
20:36	444975	N
20:36	445306	N
20:37	445642	N
20:38	445996	N
20:39	446349	N
20:40	446713	N
20:41	447074	N
20:42	447418	N
20:43	447757	N
20:44	448111	N
20:45	448462	N
20:46	448826	N
20:47	449181	N
20:48	449515	N
20:49	449863	N
20:50	450212	N
20:51	450555	N
20:52	450909	N
20:53	451253	N
20:54	451598	N
20:55	451939	N
20:56	452282	N
20:57	452643	N
20:58	452999	N
20:59	453352	N
21:00	453694	N
21:01	454029	N
21:02	454377	N
21:03	454718	N
21:04	455085	N
21:05	455451	N
21:06	455801	N
21:07	456133	N
21:07	456469	N
21:08	456816	N
21:09	457175	N
21:10	457518	N
21:11	457861	N
21:12	458210	N
21:13	458545	N
21:14	458887	N
21:15	459251	N
21:16	459602	N
21:17	459960	N
21:18	460305	N
21:19	460628	N
21:20	460979	N
21:21	461330	N
21:22	461673	N
21:23	462019	N
21:24	462356	N
21:25	462691	N
21:26	463023	N
21:27	463379	N
21:28	463759	N
21:29	464115	N
21:30	464466	N
21:31	464800	N
21:32	465147	N
21:33	465501	N
21:34	465865	N
21:35	466219	N
21:35	466556	N
21:36	466879	N
21:37	467207	N
21:38	467554	N
21:39	467904	N
21:40	468264	N
21:41	468610	N
21:42	468932	N
21:43	469271	N
21:44	469613	N
21:45	469963	N
21:46	470328	N
21:47	470681	N
21:48	471032	N
21:49	471371	N
21:50	471713	N
21:51	472076	N
21:52	472438	N
21:53	472798	N
21:54	473149	N
21:55	473502	N
21:56	473856	N
21:57	474196	N
21:58	474556	N
21:59	474918	N
22:00	475262	N
22:01	475590	N
22:02	475929	N
22:03	476292	N
22:04	476652	N
22:05	477021	N
22:06	477370	N
22:06	477713	N
22:07	478041	N
22:08	478386	N
22:09	478748	N
22:10	479116	N
22:11	479462	N
22:12	479807	N
22:13	480161	N
22:14	480518	N
22:15	480874	N
22:16	481250	N
22:17	481612	N
22:18	481947	N
22:19	482286	N
22:20	482627	N
22:21	482997	N
22:22	483342	N
22:23	483690	N
22:24	484031	N
22:25	484362	N
22:26	484703	N
22:27	485046	N
22:28	485406	N
22:29	485771	N
22:30	486125	N
22:31	486475	N
22:32	486836	N
22:33	487213	N
22:34	487596	N
22:35	487954	N
22:36	488304	N
22:37	488654	N
22:38	489005	N
22:39	489361	N
22:40	489719	N
22:41	490084	N
22:42	490432	N
22:43	490762	N
22:44	491102	N
22:45	491457	N
22:46	491814	N
22:47	492165	N
22:48	492495	N
22:48	492820	N
22:49	493147	N
22:50	493480	N
22:51	493820	N
22:52	494173	N
22:53	494511	N
22:54	494839	N
22:55	495168	N
22:56	495504	N
22:57	495853	N
22:58	496214	N
22:59	496575	N
23:00	496924	N
23:01	497243	N
23:02	497569	N
23:03	497902	N
23:04	498241	N
23:04	498575	N
23:05	498890	N
23:06	499190	N
23:07	499509	N
23:08	499820	N
23:09	500137	N
23:10	500463	N
23:11	500790	N
23:11	501117	N
23:12	501438	N
23:13	501761	N
23:14	502080	N
23:15	502427	N
23:16	502771	N
23:17	503105	N
23:18	503420	N
23:19	503723	N
23:20	504044	N
23:21	504377	N
23:22	504722	N
23:23	505088	N
23:23	505437	N
23:24	505768	N
23:25	506086	N
23:26	506419	N
23:27	506767	N
23:28	507111	N
23:29	507444	N
23:30	507791	N
23:31	508133	N
23:32	508481	N
23:33	508849	N
23:34	509231	N
23:35	509607	N
23:36	509951	N
23:37	510301	N
23:38	510664	N
23:39	511036	N
23:40	511411	N
23:41	511771	N
23:42	512123	N
23:43	512468	N
23:44	512822	N
23:45	513190	N
23:46	513555	N
23:47	513910	N
23:48	514266	N
23:49	514613	N
23:50	514966	N
23:51	515333	N
23:52	515704	N
23:53	516083	N
23:54	516440	N
23:55	516790	N
23:56	517134	N
23:57	517503	N
23:58	517877	N
23:59	518234	N
24:00	518580	N
24:01	518932	N
24:02	519282	N
24:03	519643	N
24:04	520012	N
24:05	520384	N
24:06	520736	N
24:07	521078	N
24:08	521439	N
24:09	521812	N
24:10	522173	N
24:11	522538	N
24:12	522873	N
24:13	523219	N
24:14	523562	N
24:15	523914	N
24:16	524261	N
24:17	524617	N
24:18	524966	N
24:19	525313	N
24:20	525653	N
24:21	526021	N
24:22	526400	N
24:23	526768	N
24:24	527128	N
24:25	527483	N
24:26	527825	N
24:27	528158	N
24:28	528506	N
24:29	528873	N
24:30	529224	N
24:31	529578	N
24:32	529942	N
24:33	530311	N
24:34	530688	N
24:35	531066	N
24:36	531430	N
24:37	531777	N
24:37	532014	A
24:39	532473	N
24:40	532864	N
24:41	533236	N
24:42	533598	N
24:43	533954	N
24:44	534315	N
24:45	534686	N
24:46	535057	N
24:47	535419	N
24:48	535769	N
24:49	536117	N
24:50	536481	N
24:51	536872	N
24:52	537271	N
24:53	537657	N
24:54	538040	N
24:55	538400	N
24:56	538748	N
24:57	539124	N
24:58	539505	N
24:59	539876	N
25:00	540217	N
25:01	540569	N
25:02	540936	N
25:03	541305	N
25:04	541665	N
25:05	542032	N
25:06	542397	N
25:07	542740	N
25:08	543086	N
25:09	543467	N
25:10	543847	N
25:11	544204	N
25:12	544556	N
25:13	544915	N
25:14	545285	N
25:15	545656	N
25:16	546035	N
25:17	546413	N
25:18	546756	N
25:19	547096	N
25:20	547455	N
25:21	547837	N
25:22	548210	N
25:23	548575	N
25:24	548942	N
25:25	549304	N
25:26	549662	N
25:27	550048	N
25:28	550432	N
25:29	550798	N
25:30	551142	N
25:31	551484	N
25:32	551842	N
25:33	552204	N
25:34	552571	N
25:35	552931	N
25:36	553272	N
25:37	553625	N
25:38	553987	N
25:39	554355	N
25:40	554725	N
25:41	555091	N
25:42	555438	N
25:43	555773	N
25:44	556137	N
25:45	556511	N
25:46	556872	N
25:47	557232	N
25:48	557592	N
25:49	557943	N
25:50	558297	N
25:51	558674	N
25:52	559054	N
25:53	559406	N
25:54	559749	N
25:55	560112	N
25:56	560470	N
25:57	560836	N
25:58	561210	N
25:59	561561	N
26:00	561883	N
26:01	562190	N
26:02	562516	N
26:03	562884	N
26:04	563256	N
26:05	563612	N
26:06	563967	N
26:07	564331	N
26:08	564686	N
26:09	565051	N
26:10	565437	N
26:11	565819	N
26:12	566168	N
26:13	566526	N
26:14	566897	N
26:15	567275	N
26:16	567646	N
26:17	568016	N
26:18	568385	N
26:19	568731	N
26:20	569085	N
26:21	569465	N
26:22	569844	N
26:23	570199	N
26:24	570549	N
26:25	570909	N
26:26	571273	N
26:27	571631	N
26:28	572003	N
26:29	572369	N
26:30	572720	N
26:31	573059	N
26:32	573415	N
26:33	573802	N
26:34	574172	N
26:35	574529	N
26:36	574879	N
26:37	575217	N
26:38	575558	N
26:39	575911	N
26:40	576277	N
26:41	576642	N
26:42	576984	N
26:43	577332	N
26:44	577695	N
26:45	578078	N
26:46	578462	N
26:47	578831	N
26:48	579193	N
26:49	579550	N
26:50	579895	N
26:51	580267	N
26:52	580648	N
26:53	581023	N
26:54	581380	N
26:55	581737	N
26:56	582109	N
26:58	582487	N
26:59	582861	N
27:00	583231	N
27:01	583586	N
27:02	583950	N
27:03	584307	N
27:04	584682	N
27:05	585061	N
27:06	585417	N
27:07	585760	N
27:08	586108	N
27:09	586479	N
27:10	586853	N
27:11	587219	N
27:12	587589	N
27:13	587925	N
27:14	588269	N
27:15	588628	N
27:16	589007	N
27:17	589371	N
27:18	589727	N
27:19	590080	N
27:20	590436	N
27:21	590788	N
27:22	591158	N
27:23	591531	N
27:24	591870	N
27:25	592201	N
27:25	592533	N
27:26	592861	N
27:27	593205	N
27:28	593543	N
27:29	593877	N
27:30	594215	N
27:31	594551	N
27:32	594905	N
27:33	595263	N
27:34	595637	N
27:35	596014	N
27:36	596367	N
27:37	596717	N
27:38	597079	N
27:39	597466	N
27:40	597837	N
27:41	598206	N
27:42	598572	N
27:43	598911	N
27:44	599258	N
27:45	599625	N
27:46	599989	N
27:47	600348	N
27:48	600693	N
27:49	601042	N
27:50	601395	N
27:51	601762	N
27:52	602126	N
27:53	602483	N
27:54	602836	N
27:55	603172	N
27:56	603506	N
27:57	603864	N
27:58	604228	N
27:59	604572	N
28:00	604907	N
28:01	605249	N
28:02	605581	N
28:03	605936	N
28:04	606300	N
28:05	606674	N
28:06	607017	N
28:07	607352	N
28:08	607685	N
28:08	608015	N
28:09	608357	N
28:10	608711	N
28:11	609058	N
28:12	609397	N
28:13	609750	N
28:14	610113	N
28:15	610499	N
28:16	610880	N
28:17	611262	N
28:18	611616	N
28:19	611966	N
28:20	612339	N
28:21	612708	N
28:22	613067	N
28:23	613422	N
28:24	613774	N
28:25	614127	N
28:26	614489	N
28:27	614852	N
28:28	615229	N
28:29	615589	N
28:30	615934	N
28:31	616288	N
28:32	616655	N
28:33	617034	N
28:34	617392	N
28:36	617763	N
28:36	618119	N
28:37	618468	N
28:38	618824	N
28:39	619199	N
28:41	619583	N
28:42	619938	N
28:43	620282	N
28:44	620647	N
28:45	621010	N
28:46	621379	N
28:47	621750	N
28:48	622122	N
28:49	622459	N
28:49	622797	N
28:51	623161	N
28:52	623528	N
28:52	623871	N
28:53	624214	N
28:54	624552	N
28:55	624890	N
28:56	625228	N
28:57	625590	N
28:58	625971	N
28:59	626331	N
29:00	626674	N
29:01	627022	N
29:02	627373	N
29:03	627725	N
29:04	628081	N
29:05	628433	N
29:06	628784	N
29:07	629130	N
29:08	629484	N
29:09	629862	N
29:10	630244	N
29:11	630625	N
29:12	630982	N
29:13	631340	N
29:14	631695	N
29:15	632064	N
29:16	632444	N
29:17	632812	N
29:18	633172	N
29:19	633526	N
29:20	633889	N
29:21	634278	N
29:22	634648	N
29:23	635009	N
29:24	635365	N
29:25	635728	N
29:26	636099	N
29:28	636482	N
29:29	636856	N
29:30	637216	N
29:30	637555	N
29:31	637896	N
29:32	638239	N
29:33	638589	N
29:34	638918	N
29:35	639254	N
29:36	639594	N
29:37	639946	N
29:38	640287	N
29:39	640649	N
29:40	641024	N
29:41	641396	N
29:42	641737	N
29:43	642072	N
29:44	642437	N
29:45	642812	N
29:46	643177	N
29:47	643542	N
29:48	643900	N
29:49	644267	N
29:50	644629	N
29:51	645013	N
29:52	645395	N
29:53	645749	N
29:54	646099	N
29:55	646451	N
29:56	646821	N
29:57	647195	N
29:58	647569	N
29:59	647934	N
30:00	648291	N
30:01	648647	N
30:02	649004	N
30:03	649372	N
30:04	649751	N
