0:00	265	N
0:01	575	N
0:02	876	N
0:03	1180	N
0:04	1482	N
0:04	1795	N
0:05	2127	N
0:06	2444	N
0:07	2744	N
0:08	3044	N
0:09	3347	N
0:10	3647	N
0:10	3954	N
0:11	4282	N
0:12	4609	N
0:13	4939	N
0:14	5255	N
0:15	5580	N
0:16	5892	N
0:17	6216	N
0:18	6553	N
0:19	6873	N
0:19	7178	N
0:20	7481	N
0:21	7781	N
0:22	8097	N
0:23	8417	N
0:24	8739	N
0:25	9060	N
0:26	9361	N
0:26	9663	N
0:27	9963	N
0:28	10279	N
0:29	10597	N
0:30	10910	N
0:31	11223	N
0:32	11520	N
0:32	11803	N
0:33	12097	N
0:34	12395	N
0:35	12698	N
0:36	13001	N
0:36	13300	N
0:37	13598	N
0:38	13886	N
0:39	14169	N
0:40	14461	N
0:41	14769	N
0:41	15082	N
0:42	15383	N
0:43	15683	N
0:44	15977	N
0:45	16269	N
0:46	16575	N
0:46	16886	N
0:47	17219	N
0:48	17536	N
0:49	17837	N
0:50	18146	N
0:51	18445	N
0:52	18739	N
0:52	19048	N
0:53	19366	N
0:54	19688	N
0:55	19990	N
0:56	20286	N
0:57	20593	N
0:58	20893	N
0:58	21200	N
0:59	21517	N
1:00	21837	N
1:01	22136	N
1:02	22423	N
1:03	22727	N
1:03	23026	N
1:04	23327	N
1:05	23639	N
1:06	23955	N
1:07	24268	N
1:08	24561	N
1:09	24860	N
1:09	25165	N
1:10	25465	N
1:11	25773	N
1:12	26082	N
1:13	26389	N
1:14	26684	N
1:14	26974	N
1:15	27272	N
1:16	27574	N
1:17	27874	N
1:18	28186	N
1:19	28491	N
1:19	28784	N
1:20	29064	N
1:21	29344	N
1:22	29650	N
1:23	29955	N
1:24	30259	N
1:24	30574	N
1:25	30880	N
1:26	31181	N
1:27	31478	N
1:28	31792	N
1:29	32116	N
1:30	32436	N
1:30	32758	N
1:31	33065	N
1:32	33374	N
1:33	33678	N
1:34	33980	N
1:35	34308	N
1:36	34629	N
1:37	34938	N
1:37	35239	N
1:38	35540	N
1:39	35846	N
1:40	36154	N
1:41	36476	N
1:42	36804	N
1:43	37115	N
1:43	37418	N
1:44	37718	N
1:45	38026	N
1:46	38332	N
1:47	38647	N
1:48	38974	N
1:49	39284	N
1:49	39578	N
1:50	39873	N
1:51	40178	N
1:52	40480	N
1:53	40788	N
1:54	41105	N
1:55	41413	N
1:55	41706	N
1:56	41996	N
1:57	42286	N
1:58	42591	N
1:59	42901	N
2:00	43203	N
2:00	43521	N
2:01	43827	N
2:02	44113	N
2:03	44404	N
2:04	44704	N
2:05	45014	N
2:05	45323	N
2:06	45629	N
2:07	45930	N
2:08	46216	N
2:09	46498	N
2:09	46784	N
2:10	47091	N
2:11	47390	N
2:12	47683	N
2:13	47978	N
2:14	48262	N
2:14	48541	N
2:15	48826	N
2:16	49114	N
2:17	49422	N
2:18	49728	N
2:18	50024	N
2:19	50325	N
2:20	50618	N
2:21	50907	N
2:22	51210	N
2:23	51519	N
2:24	51840	N
2:24	52148	N
2:25	52447	N
2:26	52750	N
2:27	53045	N
2:28	53336	N
2:29	53641	N
2:29	53952	N
2:30	54256	N
2:31	54550	N
2:32	54840	N
2:33	55126	N
2:33	55410	N
2:34	55706	N
2:35	56005	N
2:36	56304	N
2:37	56590	N
2:37	56864	N
2:38	57147	N
2:39	57439	N
2:40	57737	N
2:41	58053	N
2:42	58375	N
2:43	58702	N
2:43	59024	N
2:44	59343	N
2:45	59660	N
2:46	59977	N
2:47	60295	N
2:48	60623	N
2:49	60942	N
2:50	61245	N
2:50	61538	N
2:51	61847	N
2:52	62160	N
2:53	62473	N
2:54	62792	N
2:55	63106	N
2:56	63413	N
2:56	63710	N
2:57	64023	N
2:58	64356	N
2:59	64683	N
3:00	65013	N
3:01	65327	N
3:02	65639	N
3:03	65939	N
3:03	66239	N
3:04	66573	N
3:05	66896	N
3:06	67210	N
3:07	67524	N
3:08	67831	N
3:09	68136	N
3:10	68442	N
3:11	68772	N
3:11	69103	N
3:12	69427	N
3:13	69740	N
3:14	70052	N
3:15	70363	N
3:16	70678	N
3:17	71010	N
3:18	71345	N
3:19	71670	N
3:19	71981	N
3:20	72287	N
3:21	72598	N
3:22	72906	N
3:23	73228	N
3:24	73559	N
3:25	73867	N
3:26	74166	N
3:26	74460	N
3:27	74766	N
3:28	75071	N
3:29	75378	N
3:30	75703	N
3:31	76011	N
3:31	76299	N
3:32	76594	N
3:33	76891	N
3:34	77193	N
3:35	77501	N
3:36	77813	N
3:37	78125	N
3:37	78415	N
3:38	78698	N
3:39	78985	N
3:40	79289	N
3:41	79594	N
3:41	79896	N
3:42	80206	N
3:43	80506	N
3:44	80793	N
3:45	81086	N
3:46	81374	N
3:46	81688	N
3:47	81995	N
3:48	82292	N
3:49	82605	N
3:50	82903	N
3:51	83188	N
3:51	83484	N
3:52	83788	N
3:53	84103	N
3:54	84404	N
3:55	84699	N
3:56	84992	N
3:56	85274	N
3:57	85547	N
3:58	85835	N
3:59	86137	N
4:00	86440	N
4:00	86734	N
4:01	87024	N
4:02	87311	N
4:03	87591	N
4:04	87872	N
4:04	88166	N
4:05	88470	N
4:06	88769	N
4:07	89056	N
4:08	89340	N
4:08	89629	N
4:09	89907	N
4:10	90194	N
4:11	90496	N
4:12	90802	N
4:13	91103	N
4:13	91388	N
4:14	91674	N
4:15	91966	N
4:16	92252	N
4:17	92550	N
4:17	92851	N
4:18	93153	N
4:19	93440	N
4:20	93719	N
4:21	94004	N
4:21	94288	N
4:22	94575	N
4:23	94875	N
4:24	95165	N
4:25	95455	N
4:25	95722	N
4:26	95978	N
4:27	96237	N
4:28	96510	N
4:28	96790	N
4:29	97078	N
4:30	97376	N
4:31	97673	N
4:32	97970	N
4:32	98256	N
4:33	98556	N
4:34	98882	N
4:35	99189	N
4:36	99495	N
4:37	99805	N
4:38	100108	N
4:38	100402	N
4:39	100690	N
4:40	101003	N
4:41	101326	N
4:42	101642	N
4:43	101960	N
4:44	102272	N
4:44	102580	N
4:45	102884	N
4:46	103201	N
4:47	103527	N
4:48	103847	N
4:49	104165	N
4:50	104475	N
4:51	104790	N
4:51	105096	N
4:52	105415	N
4:53	105758	N
4:54	106083	N
4:55	106398	N
4:56	106705	N
4:57	107019	N
4:58	107335	N
4:59	107653	N
4:59	107993	N
5:00	108320	N
5:01	108619	N
5:02	108922	N
5:03	109229	N
5:04	109538	N
5:05	109848	N
5:06	110172	N
5:06	110489	N
5:07	110792	N
5:08	111089	N
5:09	111389	N
5:10	111705	N
5:11	112021	N
5:12	112340	N
5:12	112659	N
5:13	112961	N
5:14	113258	N
5:15	113558	N
5:16	113877	N
5:17	114203	N
5:18	114526	N
5:19	114859	N
5:19	115175	N
5:20	115477	N
5:21	115782	N
5:22	116095	N
5:23	116417	N
5:24	116735	N
5:25	117052	N
5:25	117358	N
5:26	117657	N
5:27	117961	N
5:28	118273	N
5:29	118597	N
5:30	118915	N
5:31	119229	N
5:32	119540	N
5:32	119838	N
5:33	120134	N
5:34	120438	N
5:35	120758	N
5:36	121076	N
5:37	121379	N
5:37	121679	N
5:38	121971	N
5:39	122260	N
5:40	122563	N
5:41	122874	N
5:42	123188	N
5:43	123491	N
5:43	123776	N
5:44	124073	N
5:45	124362	N
5:46	124646	N
5:47	124949	N
5:47	125256	N
5:48	125561	N
5:49	125854	N
5:50	126142	N
5:51	126445	N
5:52	126751	N
5:52	127062	N
5:53	127383	N
5:54	127713	N
5:55	128029	N
5:56	128327	N
5:57	128638	N
5:58	128950	N
5:59	129267	N
5:59	129586	N
6:00	129901	N
6:01	130209	N
6:02	130500	N
6:03	130793	N
6:04	131104	N
6:05	131410	N
6:05	131714	N
6:06	132027	N
6:07	132338	N
6:08	132630	N
6:09	132919	N
6:10	133217	N
6:10	133517	N
6:11	133808	N
6:12	134090	N
6:13	134368	N
6:14	134651	N
6:14	134932	N
6:15	135228	N
6:16	135556	N
6:17	135899	N
6:18	136231	N
6:19	136563	N
6:20	136895	N
6:21	137221	N
6:22	137542	N
6:23	137894	N
6:23	138233	N
6:24	138558	N
6:25	138874	N
6:26	139191	N
6:27	139506	N
6:28	139819	N
6:29	140155	N
6:30	140489	N
6:31	140806	N
6:31	141115	N
6:32	141425	N
6:33	141738	N
6:34	142049	N
6:35	142376	N
6:36	142701	N
6:37	143011	N
6:38	143313	N
6:38	143614	N
6:39	143920	N
6:40	144220	N
6:41	144529	N
6:42	144851	N
6:43	145157	N
6:44	145452	N
6:44	145742	N
6:45	146046	N
6:46	146359	N
6:47	146672	N
6:48	146994	N
6:49	147317	N
6:50	147619	N
6:50	147924	N
6:51	148232	N
6:52	148557	N
6:53	148879	N
6:54	149196	N
6:55	149525	N
6:56	149831	N
6:57	150129	N
6:57	150438	N
6:58	150763	N
6:59	151086	N
7:00	151399	N
7:01	151717	N
7:02	152015	N
7:03	152307	N
7:03	152600	N
7:04	152914	N
7:05	153244	N
7:06	153563	N
7:07	153881	N
7:08	154190	N
7:09	154492	N
7:10	154805	N
7:10	155124	N
7:11	155457	N
7:12	155777	N
7:13	156079	N
7:14	156391	N
7:15	156691	N
7:16	156989	N
7:16	157305	N
7:17	157632	N
7:18	157948	N
7:19	158251	N
7:20	158553	N
7:21	158848	N
7:22	159143	N
7:22	159458	N
7:23	159783	N
7:24	160112	N
7:25	160422	N
7:26	160733	N
7:27	161051	N
7:28	161365	N
7:29	161692	N
7:30	162023	N
7:31	162360	N
7:31	162676	N
7:32	162978	N
7:33	163292	N
7:34	163598	N
7:35	163906	N
7:36	164223	N
7:37	164535	N
7:37	164828	N
7:38	165118	N
7:39	165416	N
7:40	165720	N
7:41	166028	N
7:42	166345	N
7:42	166661	N
7:43	166965	N
7:44	167254	N
7:45	167547	N
7:46	167862	N
7:47	168174	N
7:48	168483	N
7:48	168792	N
7:49	169106	N
7:50	169409	N
7:51	169706	N
7:52	170022	N
7:53	170349	N
7:54	170665	N
7:54	170985	N
7:55	171291	N
7:56	171592	N
7:57	171887	N
7:58	172189	N
7:59	172519	N
8:00	172836	N
8:00	173143	N
8:01	173455	N
8:02	173764	N
8:03	174067	N
8:04	174370	N
8:05	174697	N
8:06	175014	N
8:07	175321	N
8:07	175620	N
8:08	175914	N
8:09	176212	N
8:10	176508	N
8:11	176818	N
8:12	177135	N
8:12	177443	N
8:13	177738	N
8:14	178027	N
8:15	178317	N
8:16	178608	N
8:16	178903	N
8:17	179213	N
8:18	179525	N
8:19	179820	N
8:20	180121	N
8:21	180425	N
8:22	180738	N
8:22	181058	N
8:23	181379	N
8:24	181713	N
8:25	182028	N
8:26	182325	N
8:27	182633	N
8:28	182948	N
8:29	183263	N
8:29	183579	N
8:30	183907	N
8:31	184210	N
8:32	184504	N
8:33	184805	N
8:34	185111	N
8:35	185434	N
8:35	185750	N
8:36	186062	N
8:37	186372	N
8:38	186668	N
8:39	186973	N
8:40	187281	N
8:41	187606	N
8:42	187927	N
8:42	188237	N
8:43	188551	N
8:44	188850	N
8:45	189142	N
8:46	189449	N
8:47	189770	N
8:48	190089	N
8:48	190403	N
8:49	190718	N
8:50	191025	N
8:51	191334	N
8:52	191650	N
8:53	191975	N
8:54	192316	N
8:55	192634	N
8:55	192942	N
8:56	193256	N
8:57	193567	N
8:58	193890	N
8:59	194221	N
9:00	194561	N
9:01	194885	N
9:02	195190	N
9:03	195515	N
9:03	195829	N
9:04	196152	N
9:05	196483	N
9:06	196816	N
9:07	197134	N
9:08	197437	N
9:09	197749	N
9:10	198061	N
9:11	198371	N
9:11	198694	N
9:12	199015	N
9:13	199322	N
9:14	199619	N
9:15	199922	N
9:16	200230	N
9:17	200549	N
9:17	200871	N
9:18	201187	N
9:19	201502	N
9:20	201800	N
9:21	202100	N
9:22	202422	N
9:23	202740	N
9:24	203061	N
9:24	203376	N
9:25	203688	N
9:26	203989	N
9:27	204277	N
9:28	204583	N
9:29	204904	N
9:30	205216	N
9:30	205527	N
9:31	205837	N
9:32	206145	N
9:33	206452	N
9:34	206764	N
9:35	207090	N
9:36	207406	N
9:36	207719	N
9:37	208022	N
9:38	208327	N
9:39	208619	N
9:40	208918	N
9:41	209242	N
9:42	209554	N
9:42	209855	N
9:43	210151	N
9:44	210440	N
9:45	210736	N
9:46	211030	N
9:47	211325	N
9:47	211636	N
9:48	211931	N
9:49	212213	N
9:50	212493	N
9:51	212775	N
9:51	213063	N
9:52	213358	N
9:53	213662	N
9:54	213973	N
9:55	214271	N
9:56	214561	N
9:56	214851	N
9:57	215152	N
9:58	215457	N
9:59	215766	N
10:00	216093	N
10:01	216405	N
10:01	216703	N
10:02	217000	N
10:03	217300	N
10:04	217618	N
10:05	217933	N
10:06	218254	N
10:07	218579	N
10:07	218876	N
10:08	219171	N
10:09	219471	N
10:10	219785	N
10:11	220099	N
10:12	220406	N
10:13	220728	N
10:13	221032	N
10:14	221318	N
10:15	221616	N
10:16	221928	N
10:17	222246	N
10:18	222560	N
10:19	222879	N
10:19	223184	N
10:20	223480	N
10:21	223780	N
10:22	224086	N
10:23	224414	N
10:24	224729	N
10:25	225036	N
10:25	225348	N
10:26	225642	N
10:27	225933	N
10:28	226235	N
10:29	226549	N
10:30	226860	N
10:30	227158	N
10:31	227451	N
10:32	227750	N
10:33	228034	N
10:34	228321	N
10:35	228630	N
10:35	228951	N
10:36	229266	N
10:37	229561	N
10:38	229862	N
10:39	230163	N
10:40	230458	N
10:41	230761	N
10:41	231070	N
10:42	231380	N
10:43	231674	N
10:44	231963	N
10:45	232264	N
10:46	232563	N
10:46	232874	N
10:47	233201	N
10:48	233525	N
10:49	233855	N
10:50	234152	N
10:51	234468	N
10:52	234783	N
10:53	235100	N
10:53	235422	N
10:54	235736	N
10:55	236048	N
10:56	236345	N
10:57	236643	N
10:58	236955	N
10:59	237267	N
10:59	237581	N
11:00	237894	N
11:01	238202	N
11:02	238493	N
11:03	238784	N
11:04	239097	N
11:05	239411	N
11:05	239722	N
11:06	240034	N
11:07	240344	N
11:08	240644	N
11:09	240938	N
11:10	241247	N
11:11	241570	N
11:11	241889	N
11:12	242210	N
11:13	242516	N
11:14	242818	N
11:15	243109	N
11:16	243403	N
11:17	243724	N
11:17	244040	N
11:18	244343	N
11:19	244650	N
11:20	244953	N
11:21	245256	N
11:22	245560	N
11:23	245881	N
11:23	246207	N
11:24	246520	N
11:25	246824	N
11:26	247122	N
11:27	247423	N
11:28	247719	N
11:28	248029	N
11:29	248360	N
11:30	248675	N
11:31	248979	N
11:32	249282	N
11:33	249595	N
11:34	249915	N
11:35	250236	N
11:36	250574	N
11:36	250901	N
11:37	251206	N
11:38	251508	N
11:39	251812	N
11:40	252128	N
11:41	252449	N
11:42	252777	N
11:43	253100	N
11:43	253404	N
11:44	253704	N
11:45	254009	N
11:46	254323	N
11:47	254637	N
11:48	254952	N
11:49	255274	N
11:49	255571	N
11:50	255865	N
11:51	256163	N
11:52	256478	N
11:53	256797	N
11:54	257116	N
11:55	257440	N
11:55	257749	N
11:56	258047	N
11:57	258359	N
11:58	258670	N
11:59	258996	N
12:00	259313	N
12:01	259622	N
12:02	259933	N
12:02	260229	N
12:03	260524	N
12:04	260835	N
12:05	261159	N
12:06	261476	N
12:07	261785	N
12:08	262095	N
12:08	262388	N
12:09	262680	N
12:10	262985	N
12:11	263303	N
12:12	263624	N
12:13	263928	N
12:13	264231	N
12:14	264536	N
12:15	264837	N
12:16	265147	N
12:17	265471	N
12:18	265804	N
12:19	266120	N
12:20	266419	N
12:20	266733	N
12:21	267034	N
12:22	267334	N
12:23	267649	N
12:24	267969	N
12:25	268281	N
12:26	268576	N
12:26	268872	N
12:27	269172	N
12:28	269468	N
12:29	269778	N
12:30	270094	N
12:31	270411	N
12:31	270704	N
12:32	270991	N
12:33	271297	N
12:34	271604	N
12:35	271912	N
12:36	272226	N
12:37	272540	N
12:37	272844	N
12:38	273137	N
12:39	273441	N
12:40	273756	N
12:41	274070	N
12:42	274396	N
12:43	274717	N
12:43	275032	N
12:44	275331	N
12:45	275630	N
12:46	275961	N
12:47	276292	N
12:48	276598	N
12:49	276904	N
12:50	277205	N
12:50	277490	N
12:51	277772	N
12:52	278078	N
12:53	278396	N
12:54	278716	N
12:55	279033	N
12:55	279342	N
12:56	279658	N
12:57	279967	N
12:58	280298	N
12:59	280637	N
13:00	280965	N
13:01	281292	N
13:02	281607	N
13:03	281925	N
13:04	282242	N
13:04	282568	N
13:05	282910	N
13:06	283232	N
13:07	283550	N
13:08	283863	N
13:09	284181	N
13:10	284495	N
13:11	284823	N
13:12	285162	N
13:13	285486	N
13:13	285793	N
13:14	286102	N
13:15	286421	N
13:16	286739	N
13:17	287063	N
13:18	287403	N
13:19	287720	N
13:20	288026	N
13:20	288332	N
13:21	288651	N
13:22	288977	N
13:23	289305	N
13:24	289644	N
13:25	289962	N
13:26	290263	N
13:27	290570	N
13:27	290877	N
13:28	291198	N
13:29	291520	N
13:30	291844	N
13:31	292163	N
13:32	292460	N
13:33	292763	N
13:34	293077	N
13:35	293407	N
13:35	293731	N
13:36	294049	N
13:37	294368	N
13:38	294667	N
13:39	294959	N
13:40	295262	N
13:41	295589	N
13:41	295907	N
13:42	296216	N
13:43	296533	N
13:44	296836	N
13:45	297132	N
13:46	297440	N
13:47	297758	N
13:48	298087	N
13:48	298407	N
13:49	298715	N
13:50	299026	N
13:51	299326	N
13:52	299642	N
13:53	299970	N
13:54	300302	N
13:55	300618	N
13:55	300924	N
13:56	301235	N
13:57	301537	N
13:58	301842	N
13:59	302165	N
14:00	302498	N
14:01	302813	N
14:01	303116	N
14:02	303434	N
14:03	303740	N
14:04	304051	N
14:05	304373	N
14:06	304704	N
14:07	305026	N
14:08	305330	N
14:09	305644	N
14:09	305964	N
14:10	306286	N
14:11	306622	N
14:12	306954	N
14:13	307281	N
14:14	307579	N
14:15	307882	N
14:16	308196	N
14:16	308511	N
14:17	308831	N
14:18	309151	N
14:19	309469	N
14:20	309769	N
14:21	310075	N
14:22	310399	N
14:23	310725	N
14:24	311052	N
14:24	311380	N
14:25	311703	N
14:26	312020	N
14:27	312326	N
14:28	312660	N
14:29	312986	N
14:30	313315	N
14:31	313661	N
14:32	313992	N
14:33	314315	N
14:33	314629	N
14:34	314969	N
14:35	315305	N
14:36	315631	N
14:37	315955	N
14:38	316272	N
14:39	316576	N
14:40	316895	N
14:41	317237	N
14:42	317574	N
14:43	317902	N
14:43	318221	N
14:44	318549	N
14:45	318869	N
14:46	319185	N
14:47	319527	N
14:48	319854	N
14:49	320172	N
14:50	320481	N
14:51	320796	N
14:51	321115	N
14:52	321437	N
14:53	321780	N
14:54	322111	N
14:55	322420	N
14:56	322730	N
14:57	323039	N
14:58	323354	N
14:59	323680	N
15:00	324020	N
15:00	324351	N
15:01	324657	N
15:02	324957	N
15:03	325262	N
15:04	325565	N
15:05	325860	N
15:05	326159	N
15:06	326465	N
15:07	326757	N
15:08	327043	N
15:09	327337	N
15:10	327650	N
15:11	327977	N
15:11	328298	N
15:12	328634	N
15:13	328957	N
15:14	329267	N
15:15	329581	N
15:16	329903	N
15:17	330241	N
15:18	330565	N
15:19	330883	N
15:19	331191	N
15:20	331477	N
15:21	331771	N
15:22	332077	N
15:23	332397	N
15:24	332717	N
15:25	333032	N
15:25	333352	N
15:26	333657	N
15:27	333961	N
15:28	334278	N
15:29	334612	N
15:30	334931	N
15:31	335231	N
15:32	335543	N
15:32	335842	N
15:33	336145	N
15:34	336463	N
15:35	336787	N
15:36	337119	N
15:37	337434	N
15:38	337743	N
15:39	338057	N
15:39	338367	N
15:40	338700	N
15:41	339032	N
15:42	339368	N
15:43	339698	N
15:44	340017	N
15:45	340348	N
15:46	340677	N
15:47	341013	N
15:48	341351	N
15:49	341689	N
15:50	342002	N
15:50	342323	N
15:51	342645	N
15:52	342973	N
15:53	343307	N
15:54	343638	N
15:55	343967	N
15:56	344277	N
15:57	344588	N
15:58	344902	N
15:58	345218	N
15:59	345547	N
16:00	345865	N
16:01	346181	N
16:02	346481	N
16:03	346778	N
16:04	347093	N
16:05	347417	N
16:05	347741	N
16:06	348076	N
16:07	348411	N
16:08	348733	N
16:09	349051	N
16:10	349391	N
16:11	349726	N
16:12	350058	N
16:13	350382	N
16:14	350698	N
16:15	351003	N
16:15	351305	N
16:16	351637	N
16:17	351959	N
16:18	352273	N
16:19	352584	N
16:20	352891	N
16:21	353193	N
16:21	353494	N
16:22	353814	N
16:23	354143	N
16:24	354464	N
16:25	354777	N
16:26	355080	N
16:27	355385	N
16:28	355690	N
16:28	356005	N
16:29	356337	N
16:30	356658	N
16:31	356969	N
16:32	357269	N
16:33	357583	N
16:34	357890	N
16:35	358205	N
16:35	358545	N
16:36	358864	N
16:37	359174	N
16:38	359477	N
16:39	359785	N
16:40	360099	N
16:41	360416	N
16:42	360752	N
16:42	361079	N
16:43	361394	N
16:44	361705	N
16:45	362015	N
16:46	362344	N
16:47	362671	N
16:48	363002	N
16:49	363333	N
16:50	363647	N
16:50	363957	N
16:51	364278	N
16:52	364608	N
16:53	364936	N
16:54	365272	N
16:55	365600	N
16:56	365905	N
16:57	366215	N
16:58	366534	N
16:59	366861	N
16:59	367179	N
17:00	367498	N
17:01	367811	N
17:02	368100	N
17:03	368394	N
17:04	368700	N
17:05	369021	N
17:05	369336	N
17:06	369647	N
17:07	369965	N
17:08	370266	N
17:09	370557	N
17:10	370862	N
17:11	371192	N
17:12	371520	N
17:12	371843	N
17:13	372164	N
17:14	372474	N
17:15	372774	N
17:16	373084	N
17:17	373405	N
17:18	373731	N
17:18	374038	N
17:19	374345	N
17:20	374653	N
17:21	374948	N
17:22	375253	N
17:23	375576	N
17:24	375901	N
17:25	376216	N
17:25	376519	N
17:26	376836	N
17:27	377141	N
17:28	377446	N
17:29	377772	N
17:30	378105	N
17:31	378423	N
17:32	378728	N
17:32	379042	N
17:33	379357	N
17:34	379673	N
17:35	380000	N
17:36	380329	N
17:37	380652	N
17:38	380953	N
17:39	381259	N
17:39	381567	N
17:40	381872	N
17:41	382194	N
17:42	382511	N
17:43	382829	N
17:44	383128	N
17:45	383420	N
17:45	383739	N
17:46	384058	N
17:47	384380	N
17:48	384707	N
17:49	385033	N
17:50	385345	N
17:51	385647	N
17:52	385966	N
17:53	386291	N
17:53	386608	N
17:54	386921	N
17:55	387232	N
17:56	387535	N
17:57	387831	N
17:58	388142	N
17:59	388468	N
17:59	388786	N
18:00	389112	N
18:01	389426	N
18:02	389738	N
18:03	390036	N
18:04	390342	N
18:05	390676	N
18:06	390994	N
18:06	391302	N
18:07	391603	N
18:08	391897	N
18:09	392193	N
18:09	392322	~
18:10	392477	N
18:11	392768	N
18:11	393055	N
18:12	393325	N
18:13	393583	N
18:13	393832	N
18:14	394080	N
18:15	394327	N
18:16	394566	N
18:16	394809	N
18:17	395066	N
18:18	395320	N
18:18	395437	~
18:18	395567	N
18:19	395804	N
18:20	396037	N
18:20	396273	N
18:21	396518	N
18:22	396761	N
18:22	397014	N
18:23	397286	N
18:24	397569	N
18:25	397845	N
18:25	398111	N
18:26	398385	N
18:27	398671	N
18:28	398968	N
18:29	399274	N
18:29	399588	N
18:30	399910	N
18:31	400218	N
18:32	400521	N
18:33	400829	N
18:34	401157	N
18:35	401487	N
18:36	401827	N
18:37	402164	N
18:38	402481	N
18:38	402803	N
18:39	403132	N
18:40	403475	N
18:41	403809	N
18:42	404150	N
18:43	404482	N
18:44	404792	N
18:45	405100	N
18:46	405404	N
18:47	405724	N
18:47	406044	N
18:48	406357	N
18:49	406685	N
18:50	406993	N
18:51	407303	N
18:52	407627	N
18:53	407954	N
18:54	408286	N
18:55	408614	N
18:55	408936	N
18:56	409229	N
18:57	409520	N
18:58	409830	N
18:59	410173	N
19:00	410497	N
19:01	410816	N
19:02	411140	N
19:02	411454	N
19:03	411755	N
19:04	412068	N
19:05	412402	N
19:06	412731	N
19:07	413022	N
19:08	413301	N
19:08	413367	~
19:08	413576	N
19:09	413836	N
19:10	414092	N
19:11	414360	N
19:11	414630	N
19:12	414903	N
19:13	415166	N
19:13	415421	N
19:14	415687	N
19:15	415951	N
19:16	416216	N
19:16	416500	N
19:17	416790	N
19:18	417092	N
19:19	417392	N
19:20	417689	N
19:21	417997	N
19:21	418275	A
19:22	418638	N
19:23	418976	N
19:24	419305	N
19:25	419627	N
19:26	419931	N
19:27	420249	N
19:28	420574	N
19:29	420894	N
19:30	421234	N
19:31	421564	N
19:31	421882	N
19:32	422192	N
19:33	422512	N
19:34	422843	N
19:35	423172	N
19:36	423513	N
19:37	423842	N
19:38	424160	N
19:39	424467	N
19:39	424779	N
19:40	425101	N
19:41	425420	N
19:42	425740	N
19:43	426054	N
19:44	426367	N
19:45	426677	N
19:46	426998	N
19:47	427345	N
19:47	427678	N
19:48	428020	N
19:49	428344	N
19:50	428666	N
19:51	428983	N
19:52	429316	N
19:53	429671	N
19:54	430000	N
19:55	430334	N
19:56	430653	N
19:57	430974	N
19:58	431287	N
19:58	431617	N
19:59	431958	N
20:00	432284	N
20:01	432586	N
20:02	432867	N
20:03	433139	N
20:03	433405	N
20:04	433671	N
20:05	433958	N
20:06	434246	N
20:07	434530	N
20:07	434808	N
20:08	435081	N
20:09	435359	N
20:10	435636	N
20:10	435911	N
20:11	436197	N
20:12	436484	N
20:13	436751	N
20:13	437003	N
20:14	437256	N
20:15	437512	N
20:16	437775	N
20:16	438038	N
20:17	438305	N
20:18	438589	N
20:19	438866	N
20:19	439133	N
20:20	439404	N
20:21	439683	N
20:22	439977	N
20:22	440272	N
20:23	440572	N
20:24	440893	N
20:25	441202	N
20:26	441506	N
20:27	441812	N
20:28	442135	N
20:29	442478	N
20:30	442812	N
20:30	443152	N
20:31	443478	N
20:32	443786	N
20:33	444100	N
20:34	444431	N
20:35	444773	N
20:36	445105	N
20:37	445449	N
20:38	445776	N
20:39	446085	N
20:40	446406	N
20:40	446743	N
20:41	447076	N
20:42	447405	N
20:43	447735	N
20:44	448047	N
20:45	448354	N
20:46	448671	N
20:47	449005	N
20:48	449335	N
20:49	449651	N
20:49	449969	N
20:50	450277	N
20:51	450577	N
20:52	450894	N
20:53	451212	N
20:54	451535	N
20:55	451845	N
20:55	452143	N
20:56	452451	N
20:57	452746	N
20:58	453036	N
20:59	453347	N
21:00	453672	N
21:01	453984	N
21:01	454277	N
21:02	454583	N
21:03	454890	N
21:04	455197	N
21:05	455516	N
21:06	455843	N
21:07	456173	N
21:08	456481	N
21:08	456798	N
21:09	457116	N
21:10	457443	N
21:11	457787	N
21:12	458118	N
21:13	458452	N
21:14	458769	N
21:15	459090	N
21:16	459418	N
21:17	459754	N
21:18	460097	N
21:18	460437	N
21:19	460763	N
21:20	461078	N
21:21	461402	N
21:22	461737	N
21:23	462063	N
21:24	462387	N
21:25	462712	N
21:26	463032	N
21:27	463341	N
21:27	463668	N
21:28	464003	N
21:29	464340	N
21:30	464671	N
21:31	464988	N
21:32	465296	N
21:33	465595	N
21:34	465913	N
21:35	466236	N
21:35	466554	N
21:36	466874	N
21:37	467180	N
21:38	467480	N
21:39	467767	N
21:40	468058	N
21:40	468219	~
21:41	468376	N
21:41	468695	N
21:42	468997	N
21:43	469298	N
21:44	469606	N
21:45	469910	N
21:46	470220	N
21:47	470561	N
21:48	470900	N
21:48	471221	N
21:49	471534	N
21:50	471844	N
21:51	472154	N
21:52	472462	N
21:53	472791	N
21:54	473113	N
21:55	473413	N
21:55	473715	N
21:56	474014	N
21:57	474316	N
21:58	474614	N
21:59	474920	N
22:00	475247	N
22:01	475560	N
22:01	475855	N
22:02	476160	N
22:03	476486	N
22:04	476788	N
22:05	477079	N
22:06	477378	N
22:06	477663	N
22:07	477931	N
22:08	478193	N
22:08	478385	~
22:09	478450	N
22:09	478718	N
22:10	478988	N
22:11	479258	N
22:12	479537	N
22:12	479826	N
22:13	480098	N
22:14	480367	N
22:15	480651	N
22:15	480948	N
22:16	481259	N
22:17	481577	N
22:18	481908	N
22:19	482236	N
22:20	482543	N
22:21	482862	N
22:22	483186	N
22:23	483516	N
22:24	483848	N
22:24	484183	N
22:25	484510	N
22:26	484820	N
22:27	485128	N
22:28	485440	N
22:29	485774	N
22:30	486095	N
22:31	486422	N
22:32	486747	N
22:32	487058	N
22:33	487382	N
22:34	487721	N
22:35	488070	N
22:36	488407	N
22:37	488741	N
22:38	489066	N
22:39	489377	N
22:40	489639	A
22:41	490041	N
22:42	490395	N
22:43	490727	N
22:44	491053	N
22:44	491375	N
22:45	491695	N
22:46	492019	N
22:47	492344	N
22:48	492677	N
22:49	492984	N
22:50	493285	N
22:51	493592	N
22:51	493895	N
22:52	494218	N
22:53	494541	N
22:54	494875	N
22:55	495194	N
22:56	495503	N
22:57	495817	N
22:58	496127	N
22:59	496456	N
22:59	496793	N
23:00	497122	N
23:01	497433	N
23:02	497740	N
23:03	498053	N
23:04	498361	N
23:05	498675	N
23:06	499001	N
23:07	499337	N
23:07	499645	N
23:08	499949	N
23:09	500275	N
23:10	500594	N
23:11	500915	N
23:12	501237	N
23:13	501567	N
23:14	501881	N
23:14	502186	N
23:15	502521	N
23:16	502863	N
23:17	503191	N
23:18	503524	N
23:19	503856	N
23:20	504174	N
23:21	504488	N
23:22	504819	N
23:23	505157	N
23:24	505487	N
23:25	505816	N
23:25	506138	N
23:26	506449	N
23:27	506765	N
23:28	507098	N
23:29	507429	N
23:30	507751	N
23:31	508068	N
23:32	508379	N
23:32	508679	N
23:33	508973	N
23:34	509293	N
23:35	509614	N
23:36	509930	N
23:37	510252	N
23:38	510564	N
23:39	510878	N
23:39	511194	N
23:40	511530	N
23:41	511871	N
23:42	512190	N
23:43	512504	N
23:44	512807	N
23:45	513112	N
23:46	513402	N
23:46	513695	N
23:47	514002	N
23:48	514308	N
23:49	514607	N
23:50	514908	N
23:51	515233	N
23:52	515562	N
23:53	515896	N
23:54	516261	N
23:55	516612	N
23:55	516934	N
23:56	517252	N
23:57	517586	N
23:58	517920	N
23:59	518252	N
24:00	518595	N
24:01	518918	N
24:02	519223	N
24:03	519534	N
24:04	519857	N
24:04	520183	N
24:05	520509	N
24:06	520850	N
24:07	521166	N
24:08	521469	N
24:09	521775	N
24:10	522099	N
24:11	522422	N
24:12	522729	N
24:12	523045	N
24:13	523341	N
24:14	523628	N
24:15	523922	N
24:16	524220	N
24:17	524546	N
24:17	524872	N
24:18	525198	N
24:19	525511	N
24:20	525806	N
24:21	526115	N
24:22	526437	N
24:23	526768	N
24:24	527099	N
24:25	527428	N
24:25	527750	N
24:26	528042	N
24:27	528344	N
24:28	528657	N
24:29	528994	N
24:30	529319	N
24:31	529644	N
24:32	529977	N
24:33	530293	N
24:33	530607	N
24:34	530937	N
24:35	531286	N
24:36	531619	N
24:37	531939	N
24:38	532270	N
24:39	532588	N
24:40	532911	N
24:41	533251	N
24:42	533600	N
24:43	533936	N
24:44	534253	N
24:44	534579	N
24:45	534892	N
24:46	535215	N
24:47	535546	N
24:48	535870	N
24:49	536176	N
24:50	536481	N
24:51	536801	N
24:51	537119	N
24:52	537454	N
24:53	537778	N
24:54	538101	N
24:55	538399	N
24:56	538679	N
24:57	538975	N
24:57	539263	N
24:58	539558	N
24:59	539872	N
25:00	540196	N
25:01	540516	N
25:02	540826	N
25:03	541143	N
25:04	541472	N
25:05	541804	N
25:05	542144	N
25:06	542481	N
25:07	542804	N
25:08	543114	N
25:09	543435	N
25:10	543756	N
25:11	544081	N
25:12	544413	N
25:13	544737	N
25:14	545050	N
25:14	545355	N
25:15	545670	N
25:16	546002	N
25:17	546331	N
25:18	546668	N
25:19	546989	N
25:20	547309	N
25:21	547621	N
25:22	547935	N
25:22	548269	N
25:23	548595	N
25:24	548917	N
25:25	549234	N
25:26	549553	N
25:27	549858	N
25:28	550172	N
25:29	550506	N
25:30	550836	N
25:31	551160	N
25:31	551469	N
25:32	551779	N
25:33	552084	N
25:34	552394	N
25:35	552729	N
25:36	553047	N
25:37	553358	N
25:37	553662	N
25:38	553965	N
25:39	554267	N
25:40	554576	N
25:41	554914	N
25:42	555239	N
25:43	555544	N
25:44	555848	N
25:44	556160	N
25:45	556476	N
25:46	556796	N
25:47	557140	N
25:48	557481	N
25:49	557813	N
25:50	558132	N
25:51	558460	N
25:52	558791	N
25:53	559116	N
25:54	559464	N
25:54	559797	N
25:55	560106	N
25:56	560403	N
25:57	560711	N
25:58	561033	N
25:59	561356	N
26:00	561682	N
26:01	562007	N
26:01	562313	N
26:02	562621	N
26:03	562927	N
26:04	563240	N
26:05	563558	N
26:06	563881	N
26:07	564201	N
26:08	564507	N
26:08	564818	N
26:09	565126	N
26:10	565454	N
26:11	565779	N
26:12	566114	N
26:13	566445	N
26:14	566751	N
26:15	567063	N
26:16	567385	N
26:17	567724	N
26:17	568051	N
26:18	568379	N
26:19	568707	N
26:20	569007	N
26:21	569307	N
26:22	569622	N
26:23	569950	N
26:24	570273	N
26:24	570587	N
26:25	570907	N
26:26	571214	N
26:27	571512	N
26:28	571815	N
26:29	572136	N
26:30	572457	N
26:31	572760	N
26:31	573064	N
26:32	573358	N
26:33	573653	N
26:34	573963	N
26:35	574285	N
26:36	574613	N
26:37	574928	N
26:37	575228	N
26:38	575535	N
26:39	575835	N
26:40	576150	N
26:41	576473	N
26:42	576799	N
26:43	577113	N
26:43	577420	N
26:44	577736	N
26:45	578052	N
26:46	578369	N
26:47	578709	N
26:48	579055	N
26:49	579374	N
26:50	579681	N
26:51	580008	N
26:52	580321	N
26:52	580629	N
26:53	580943	N
26:54	581264	N
26:55	581575	N
26:56	581868	N
26:57	582179	N
26:58	582496	N
26:58	582814	N
26:59	583140	N
27:00	583463	N
27:01	583779	N
27:02	584080	N
27:03	584389	N
27:04	584705	N
27:05	585030	N
27:06	585364	N
27:06	585697	N
27:07	586021	N
27:08	586334	N
27:09	586656	N
27:10	586984	N
27:11	587314	N
27:12	587646	N
27:13	587964	N
27:14	588280	N
27:14	588583	N
27:15	588897	N
27:16	589228	N
27:17	589548	N
27:18	589874	N
27:19	590196	N
27:20	590507	N
27:21	590808	N
27:21	591118	N
27:22	591455	N
27:23	591786	N
27:24	592114	N
27:25	592439	N
27:26	592762	N
27:27	593072	N
27:28	593396	N
27:29	593735	N
27:30	594069	N
27:31	594399	N
27:31	594717	N
27:32	594882	~
27:32	595029	N
27:33	595333	N
27:34	595645	N
27:35	595978	N
27:36	596298	N
27:37	596611	N
27:38	596918	N
27:38	597223	N
27:39	597530	N
27:40	597846	N
27:41	598184	N
27:42	598508	N
27:43	598818	N
27:44	599129	N
27:45	599445	N
27:45	599758	N
27:46	600080	N
27:47	600425	N
27:48	600755	N
27:49	601081	N
27:50	601392	N
27:51	601717	N
27:52	602053	N
27:53	602388	N
27:54	602740	N
27:55	603071	N
27:56	603383	N
27:56	603698	N
27:57	604022	N
27:58	604345	N
27:59	604665	N
28:00	605001	N
28:01	605321	N
28:02	605619	N
28:03	605927	N
28:04	606246	N
28:04	606574	N
28:05	606908	N
28:06	607245	N
28:07	607561	N
28:08	607866	N
28:09	608175	N
28:10	608502	N
28:11	608832	N
28:12	609150	N
28:13	609482	N
28:13	609788	N
28:14	610083	N
28:15	610381	N
28:16	610679	N
28:17	610999	N
28:18	611311	N
28:18	611625	N
28:19	611953	N
28:20	612261	N
28:21	612570	N
28:22	612894	N
28:23	613236	N
28:24	613564	N
28:25	613885	N
28:26	614208	N
28:26	614519	N
28:27	614836	N
28:28	615164	N
28:29	615506	N
28:30	615830	N
28:31	616145	N
28:32	616460	N
28:33	616765	N
28:34	617082	N
28:35	617416	N
28:36	617762	N
28:36	618099	N
28:37	618420	N
28:38	618746	N
28:39	619060	N
28:40	619385	N
28:41	619722	N
28:42	620066	N
28:43	620389	N
28:44	620706	N
28:45	621028	N
28:45	621344	N
28:46	621677	N
28:47	622014	N
28:48	622354	N
28:49	622667	N
28:50	622975	N
28:51	623287	N
28:52	623587	N
28:53	623895	N
28:53	624197	N
28:54	624501	N
28:55	624796	N
28:56	625083	N
28:57	625386	N
28:58	625692	N
28:58	626012	N
28:59	626347	N
29:00	626681	N
29:01	626996	N
29:02	627303	N
29:03	627622	N
29:04	627954	N
29:05	628286	N
29:06	628622	N
29:07	628961	N
29:08	629281	N
29:08	629584	N
29:09	629907	N
29:10	630233	N
29:11	630559	N
29:12	630884	N
29:13	631202	N
29:14	631514	N
29:15	631814	N
29:15	632127	N
29:16	632448	N
29:17	632764	N
29:18	633084	N
29:19	633390	N
29:20	633686	N
29:21	633977	N
29:21	634278	N
29:22	634602	N
29:23	634932	N
29:24	635265	N
29:25	635594	N
29:26	635920	N
29:27	636238	N
29:28	636570	N
29:29	636923	N
29:30	637264	N
29:31	637604	N
29:32	637931	N
29:32	638262	N
29:33	638585	N
29:34	638923	N
29:35	639267	N
29:36	639597	N
29:37	639923	N
29:38	640237	N
29:39	640554	N
29:40	640869	N
29:41	641198	N
29:42	641531	N
29:42	641850	N
29:43	642159	N
29:44	642463	N
29:45	642777	N
29:46	643088	N
29:47	643413	N
29:48	643744	N
29:49	644059	N
29:49	644364	N
29:50	644668	N
29:51	644981	N
29:52	645287	N
29:53	645602	N
29:54	645947	N
29:55	646269	N
29:56	646576	N
29:56	646891	N
29:57	647215	N
29:58	647546	N
29:59	647879	N
30:00	648227	N
30:01	648557	N
30:02	648872	N
30:03	649195	N
30:04	649534	N
30:05	649875	N
