0:00	73	/
0:00	316	/
0:01	615	/
0:02	901	/
0:03	1188	/
0:04	1477	f
0:04	1749	f
0:05	2062	/
0:06	2361	/
0:07	2651	/
0:08	2942	/
0:08	3232	/
0:09	3522	f
0:10	3796	f
0:11	4102	/
0:12	4407	/
0:13	4704	/
0:13	4995	/
0:14	5281	/
0:15	5569	f
0:16	5873	f
0:17	6143	/
0:17	6451	/
0:18	6744	/
0:19	7042	/
0:20	7332	/
0:20	7556	~
0:21	7619	f
0:22	7921	f
0:22	8184	/
0:23	8496	/
0:24	8765	~
0:24	8794	/
0:25	9088	/
0:26	9378	/
0:26	9678	f
0:27	9951	f
0:28	10232	/
0:29	10533	/
0:30	10839	/
0:30	11135	/
0:31	11434	f
0:32	11725	f
0:33	12040	f
0:34	12287	/
0:34	12575	/
0:35	12885	/
0:36	13185	/
0:37	13479	/
0:38	13783	f
0:39	14059	f
0:39	14339	/
0:40	14617	/
0:41	14930	/
0:42	15233	/
0:43	15525	/
0:43	15816	f
0:44	16118	f
0:45	16390	/
0:46	16671	/
0:47	16967	/
0:47	17274	/
0:48	17571	/
0:49	17869	/
0:50	18171	f
0:51	18444	f
0:52	18724	/
0:52	19008	/
0:53	19318	/
0:54	19616	/
0:55	19910	/
0:56	20189	f
0:56	20492	f
0:57	20804	f
0:58	21056	/
0:59	21362	/
1:00	21668	/
1:00	21959	/
1:01	22109	~
1:01	22249	/
1:02	22390	+
1:02	22532	Q
1:03	22828	Q
1:04	23101	Q
1:04	23249	+
1:04	23398	/
1:05	23701	/
1:06	23890	~
1:06	23998	/
1:07	24300	/
1:08	24590	/
1:09	24877	f
1:09	25178	f
1:10	25440	/
1:11	25747	/
1:12	26048	/
1:13	26341	/
1:13	26634	/
1:14	26926	/
1:15	27184	N
1:16	27489	f
1:17	27778	f
1:18	28084	/
1:18	28380	/
1:19	28675	/
1:20	28963	/
1:21	29250	/
1:21	29519	f
1:22	29812	f
1:23	30144	f
1:24	30421	f
1:25	30719	/
1:26	31012	/
1:26	31302	/
1:27	31580	/
1:28	31861	/
1:29	32168	/
1:29	32306	+
1:30	32445	N
1:30	32734	N
1:31	33059	f
1:32	33332	f
1:32	33475	+
1:33	33618	/
1:34	33896	/
1:34	34194	/
1:35	34498	/
1:36	34794	/
1:37	35091	/
1:38	35359	N
1:39	35661	f
1:39	35938	f
1:40	36225	/
1:41	36529	/
1:42	36827	/
1:42	36949	~
1:43	37123	/
1:43	37417	/
1:44	37709	/
1:45	37977	N
1:46	38278	f
1:47	38574	/
1:47	38872	/
1:48	39165	/
1:49	39462	/
1:50	39754	/
1:51	40039	/
1:51	40302	N
1:52	40607	f
1:53	40910	f
1:54	41089	~
1:54	41210	/
1:55	41511	/
1:56	41802	/
1:57	42136	/
1:57	42372	/
1:58	42651	/
1:59	42952	f
2:00	43244	N
2:00	43556	f
2:01	43843	f
2:02	44140	/
2:03	44421	/
2:04	44698	/
2:05	45002	/
2:05	45306	/
2:06	45600	/
2:07	45897	/
2:08	46180	f
2:09	46456	N
2:09	46745	f
2:10	47033	f
2:11	47340	/
2:12	47636	/
2:13	47938	/
2:13	48232	/
2:14	48526	/
2:15	48806	/
2:16	49085	/
2:17	49391	/
2:18	49684	f
2:18	49934	N
2:19	50247	f
2:20	50557	f
2:21	50820	f
2:21	51008	~
2:21	51097	f
2:22	51394	/
2:23	51697	/
2:24	51994	/
2:25	52295	/
2:25	52496	~
2:26	52587	/
2:26	52875	/
2:27	53154	/
2:28	53436	/
2:29	53739	/
2:30	54035	/
2:30	54165	+
2:30	54295	N
2:31	54584	N
2:32	54879	N
2:33	55173	f
2:34	55464	f
2:34	55776	f
2:35	56050	f
2:36	56199	+
2:36	56348	/
2:37	56644	/
2:37	56800	~
2:38	56938	/
2:38	57226	/
2:39	57504	/
2:40	57791	/
2:41	58094	/
2:42	58391	/
2:42	58530	+
2:42	58669	N
2:43	58951	N
2:44	59265	f
2:45	59536	f
2:45	59668	~
2:45	59676	+
2:46	59816	/
2:47	60122	/
2:47	60421	/
2:48	60607	~
2:48	60712	/
2:49	60865	~
2:49	61011	/
2:50	61307	/
2:51	61589	/
2:51	61755	~
2:51	61855	f
2:52	62126	N
2:53	62458	f
2:54	62737	f
2:55	63040	/
2:55	63333	/
2:56	63623	/
2:57	63905	/
2:58	64188	/
2:59	64487	/
2:59	64785	/
3:00	64921	+
3:00	65057	N
3:01	65189	~
3:01	65335	N
3:02	65652	f
3:03	65950	f
3:03	66205	f
3:04	66356	+
3:04	66508	/
3:05	66808	/
3:06	67045	~
3:06	67099	/
3:07	67398	/
3:08	67695	/
3:08	67979	/
3:09	68260	/
3:10	68552	/
3:11	68848	/
3:12	69131	/
3:12	69316	~
3:12	69450	/
3:13	69577	+
3:13	69704	N
3:14	69994	N
3:15	70279	f
3:16	70562	f
3:16	70867	f
3:17	71170	f
3:18	71472	f
3:19	71770	f
3:20	72073	f
3:21	72360	f
3:21	72635	f
3:22	72934	f
3:23	73231	f
3:24	73527	f
3:25	73830	f
3:25	74120	f
3:26	74409	f
3:27	74680	f
3:27	74857	~
3:28	74961	Q
3:29	75259	Q
3:29	75552	f
3:30	75774	~
3:30	75849	f
3:31	76074	~
3:31	76146	f
3:32	76428	N
3:33	76700	N
3:33	76968	N
3:34	77257	N
3:35	77548	N
3:35	77656	~
3:36	77838	N
3:37	78133	N
3:37	78425	N
3:38	78707	N
3:39	78983	N
3:40	79260	N
3:40	79387	~
3:40	79554	N
3:41	79845	N
3:42	80136	N
3:43	80430	N
3:44	80721	N
3:44	80999	N
3:45	81267	N
3:46	81553	N
3:47	81845	N
3:48	82134	N
3:48	82323	V
3:49	82480	+
3:49	82638	/
3:50	82932	/
3:51	83209	/
3:51	83488	/
3:52	83787	/
3:53	84081	/
3:54	84377	/
3:55	84677	/
3:56	84976	/
3:56	85260	/
3:57	85536	/
3:58	85830	/
3:59	86127	/
4:00	86423	/
4:00	86721	/
4:01	87020	f
4:02	87310	f
4:03	87587	f
4:04	87874	f
4:04	88171	f
4:05	88491	f
4:06	88793	f
4:07	89085	f
4:08	89380	f
4:09	89655	f
4:09	89927	f
4:10	90015	~
4:10	90116	~
4:10	90223	f
4:11	90517	f
4:12	90731	~
4:12	90807	f
4:13	91107	f
4:13	91408	f
4:14	91693	f
4:15	91969	f
4:16	92267	f
4:16	92507	N
4:17	92817	f
4:18	93118	f
4:19	93416	/
4:19	93598	~
4:20	93712	/
4:21	93994	/
4:21	94270	/
4:22	94567	/
4:23	94861	/
4:24	95161	/
4:25	95462	/
4:26	95764	/
4:26	96048	/
4:27	96325	/
4:28	96621	/
4:29	96913	/
4:30	97204	/
4:30	97505	/
4:31	97647	~
4:31	97805	/
4:32	98093	/
4:33	98370	/
4:33	98612	~
4:34	98661	/
4:34	98961	/
4:35	99248	/
4:36	99502	~
4:36	99553	/
4:37	99853	/
4:37	99984	+
4:38	100116	N
4:38	100349	N
4:39	100624	N
4:40	100902	N
4:41	101187	N
4:41	101478	N
4:42	101765	N
4:43	102062	N
4:44	102348	N
4:45	102616	N
4:45	102893	N
4:46	103176	N
4:47	103463	N
4:47	103632	~
4:48	103751	N
4:49	104041	N
4:49	104339	N
4:50	104612	N
4:51	104881	N
4:52	105172	N
4:52	105449	N
4:53	105741	N
4:54	106039	N
4:55	106329	N
4:56	106625	f
4:56	106898	f
4:57	107175	N
4:58	107473	f
4:59	107764	f
5:00	108057	N
5:01	108362	f
5:01	108665	f
5:02	108943	f
5:03	109223	f
5:04	109516	f
5:05	109809	f
5:05	110106	f
5:06	110398	f
5:07	110702	f
5:08	110997	f
5:09	111269	Q
5:09	111566	Q
5:10	111856	Q
5:11	112150	Q
5:12	112456	f
5:13	112756	f
5:14	113047	f
5:14	113327	Q
5:15	113612	Q
5:16	113908	Q
5:17	114196	Q
5:18	114505	Q
5:18	114816	Q
5:19	115121	Q
5:20	115405	Q
5:21	115658	Q
5:21	115900	+
5:22	115955	f
5:22	116246	/
5:23	116567	/
5:24	116840	/
5:25	117144	/
5:26	117433	/
5:26	117710	/
5:27	117999	/
5:28	118291	/
5:29	118582	/
5:30	118898	/
5:31	119185	/
5:31	119487	/
5:32	119763	/
5:33	120047	/
5:34	120341	/
5:35	120627	/
5:35	120776	~
5:35	120925	/
5:36	121228	/
5:37	121530	/
5:38	121709	~
5:38	121816	/
5:39	122092	/
5:39	122387	/
5:40	122676	/
5:41	122965	/
5:42	123264	/
5:43	123571	/
5:44	123865	/
5:44	124145	/
5:45	124435	/
5:46	124722	/
5:47	125012	/
5:48	125315	/
5:48	125615	/
5:49	125918	/
5:50	126199	/
5:51	126480	/
5:52	126773	/
5:52	127060	/
5:53	127354	/
5:54	127657	/
5:55	127965	/
5:56	128251	f
5:57	128528	f
5:57	128838	f
5:58	129106	f
5:59	129242	+
5:59	129379	N
6:00	129666	N
6:00	129950	N
6:01	130236	N
6:02	130502	N
6:03	130770	N
6:04	131056	N
6:04	131279	~
6:04	131330	N
6:05	131611	N
6:06	131901	N
6:07	132201	N
6:08	132487	N
6:08	132761	N
6:09	133047	N
6:10	133334	N
6:11	133623	f
6:11	133918	N
6:12	134218	N
6:13	134526	f
6:14	134807	f
6:14	134937	~
6:15	135087	f
6:16	135386	f
6:16	135677	f
6:17	135976	f
6:18	136284	f
6:19	136586	f
6:20	136880	f
6:20	137159	f
6:21	137458	f
6:22	137746	f
6:22	137877	~
6:23	138037	f
6:24	138306	f
6:24	138494	~
6:25	138611	f
6:25	138909	f
6:26	139189	f
6:27	139477	f
6:28	139767	f
6:29	140053	f
6:29	140354	f
6:30	140656	f
6:31	140960	f
6:32	141269	f
6:33	141546	f
6:33	141833	f
6:34	142113	f
6:35	142398	f
6:36	142695	f
6:37	143002	f
6:38	143291	f
6:38	143562	f
6:39	143856	f
6:40	144143	f
6:41	144433	f
6:42	144733	f
6:42	145047	f
6:43	145347	f
6:44	145635	f
6:45	145937	f
6:46	146197	f
6:46	146484	f
6:47	146784	f
6:48	146935	+
6:48	147086	/
6:49	147392	/
6:50	147677	/
6:50	147959	/
6:51	148250	/
6:52	148533	/
6:53	148826	/
6:54	149129	/
6:55	149437	/
6:55	149726	/
6:56	150005	/
6:57	150301	/
6:58	150585	/
6:59	150869	/
6:59	151166	/
7:00	151476	/
7:01	151607	+
7:01	151739	N
7:02	151994	N
7:03	152286	f
7:03	152576	f
7:04	152862	f
7:05	153156	f
7:06	153456	f
7:07	153765	f
7:07	154062	f
7:08	154348	f
7:09	154644	f
7:10	154935	f
7:11	155201	f
7:11	155500	f
7:12	155813	f
7:13	155963	+
7:13	156113	/
7:14	156392	/
7:15	156687	/
7:16	156971	/
7:16	157250	/
7:17	157546	/
7:18	157850	/
7:19	158152	/
7:20	158439	/
7:20	158569	+
7:20	158700	N
7:21	158986	N
7:22	159278	f
7:23	159587	f
7:24	159903	f
7:24	160188	f
7:25	160478	f
7:26	160619	+
7:26	160760	/
7:27	161052	/
7:28	161335	/
7:28	161618	/
7:29	161917	/
7:30	162226	/
7:31	162527	/
7:32	162809	/
7:33	163101	/
7:33	163390	/
7:34	163671	/
7:35	163930	f
7:36	164223	N
7:37	164538	f
7:37	164830	f
7:38	165116	f
7:39	165413	f
7:40	165702	f
7:41	165972	f
7:41	166271	f
7:42	166581	f
7:43	166881	/
7:44	167160	/
7:45	167455	/
7:45	167740	/
7:46	168020	/
7:47	168315	/
7:48	168621	/
7:49	168923	/
7:50	169211	/
7:50	169499	/
7:51	169785	/
7:52	170066	/
7:53	170361	/
7:53	170494	+
7:53	170628	N
7:54	170911	N
7:55	171215	f
7:56	171499	f
7:57	171791	f
7:57	172071	f
7:58	172355	f
7:59	172652	f
8:00	172962	f
8:01	173264	f
8:02	173561	f
8:02	173855	f
8:03	174145	f
8:04	174397	f
8:04	174544	+
8:05	174691	/
8:06	174995	/
8:06	175302	/
8:07	175592	/
8:08	175880	/
8:09	176168	/
8:10	176447	/
8:10	176738	/
8:11	177038	/
8:12	177347	/
8:13	177641	/
8:14	177925	/
8:14	178055	+
8:14	178185	N
8:15	178462	N
8:16	178741	f
8:17	179042	f
8:18	179357	f
8:19	179667	f
8:19	179955	f
8:20	180258	f
8:21	180522	f
8:22	180799	f
8:22	180945	+
8:23	181091	/
8:23	181391	/
8:24	181625	~
8:24	181696	/
8:25	182017	/
8:26	182278	/
8:27	182565	/
8:27	182844	/
8:28	183131	/
8:29	183430	/
8:30	183740	/
8:30	183873	+
8:31	184006	N
8:31	184280	N
8:32	184586	f
8:33	184873	f
8:34	185159	f
8:35	185452	f
8:35	185650	~
8:36	185770	f
8:36	186047	f
8:37	186340	f
8:38	186487	+
8:38	186634	/
8:39	186920	/
8:39	187199	/
8:40	187489	/
8:41	187787	/
8:42	188094	/
8:43	188389	/
8:44	188677	/
8:44	188969	/
8:45	189246	/
8:46	189529	/
8:47	189820	f
8:47	190077	N
8:48	190388	f
8:49	190692	f
8:50	190994	f
8:51	191283	f
8:52	191567	f
8:52	191831	f
8:53	192132	f
8:54	192440	/
8:55	192734	/
8:56	193025	/
8:56	193317	/
8:57	193592	/
8:58	193879	/
8:59	194177	/
9:00	194487	/
9:01	194784	/
9:01	194916	+
9:01	195048	N
9:02	195345	N
9:03	195641	f
9:04	195930	f
9:05	196202	f
9:05	196509	f
9:06	196660	+
9:06	196811	/
9:07	197103	/
9:08	197400	/
9:09	197685	/
9:09	197962	/
9:10	198251	/
9:11	198549	/
9:12	198856	/
9:13	199154	/
9:13	199415	N
9:14	199710	f
9:15	200000	f
9:16	200294	f
9:17	200598	f
9:18	200882	f
9:18	201180	f
9:19	201471	/
9:20	201771	/
9:21	202052	/
9:22	202325	/
9:22	202613	/
9:23	202918	/
9:24	203222	/
9:25	203515	/
9:26	203814	/
9:26	203946	+
9:26	204078	N
9:27	204339	N
9:28	204635	f
9:29	204949	f
9:30	205260	f
9:30	205532	f
9:31	205827	f
9:32	205974	+
9:32	206122	/
9:33	206400	/
9:34	206684	/
9:34	206975	/
9:35	207283	/
9:36	207584	/
9:37	207874	/
9:38	208175	/
9:39	208460	/
9:39	208731	/
9:40	208864	+
9:40	208997	N
9:41	209282	N
9:42	209598	f
9:43	209899	f
9:43	210217	f
9:44	210483	f
9:45	210760	f
9:45	210903	+
9:46	211047	/
9:47	211338	/
9:47	211644	/
9:48	211941	/
9:49	212235	/
9:50	212532	/
9:51	212810	/
9:51	213088	/
9:52	213375	/
9:53	213519	+
9:53	213664	N
9:54	213951	N
9:55	214268	f
9:56	214587	f
9:56	214847	f
9:57	215122	f
9:57	215264	+
9:58	215406	/
9:59	215702	/
10:00	216009	/
10:00	216306	/
10:01	216604	/
10:02	216896	/
10:03	217171	/
10:03	217306	+
10:04	217442	N
10:04	217713	N
10:05	218046	f
10:06	218357	f
10:07	218624	f
10:07	218776	+
10:08	218928	/
10:08	219208	/
10:09	219485	/
10:10	219769	/
10:11	220071	/
10:12	220376	/
10:12	220669	/
10:13	220974	/
10:14	221256	f
10:15	221539	f
10:16	221840	f
10:16	222114	f
10:17	222420	/
10:18	222718	/
10:19	223019	/
10:20	223315	/
10:21	223592	/
10:21	223875	/
10:22	224162	/
10:23	224469	/
10:24	224744	N
10:25	225040	f
10:26	225360	f
10:26	225662	f
10:27	225911	f
10:28	226197	/
10:29	226496	/
10:29	226798	/
10:30	227094	/
10:31	227400	/
10:32	227689	/
10:33	227967	/
10:34	228249	/
10:34	228537	/
10:35	228681	+
10:35	228826	N
10:36	229117	N
10:37	229426	f
10:38	229743	f
10:38	230004	f
10:39	230283	f
10:40	230427	+
10:40	230572	/
10:41	230876	/
10:42	231177	/
10:42	231472	/
10:43	231778	/
10:44	232062	/
10:45	232333	/
10:46	232615	/
10:46	232912	/
10:47	233054	+
10:47	233197	N
10:48	233483	N
10:49	233804	f
10:50	234114	f
10:51	234371	f
10:51	234513	+
10:51	234655	/
10:52	234943	/
10:53	235243	/
10:54	235542	/
10:55	235844	/
10:55	236140	/
10:56	236421	/
10:57	236704	/
10:58	236987	/
10:59	237279	f
10:59	237584	f
11:00	237896	f
11:01	238192	f
11:02	238480	/
11:03	238752	/
11:03	239035	/
11:04	239332	/
11:05	239630	/
11:06	239925	/
11:07	240236	/
11:08	240530	/
11:08	240798	f
11:09	241081	f
11:10	241391	f
11:11	241669	f
11:12	241966	/
11:12	242272	/
11:13	242573	/
11:14	242852	/
11:15	243136	/
11:16	243420	/
11:16	243718	/
11:17	244017	/
11:18	244295	N
11:19	244612	f
11:20	244924	f
11:21	245176	f
11:21	245459	/
11:22	245756	/
11:23	246056	/
11:24	246351	/
11:25	246664	/
11:25	246958	/
11:26	247232	/
11:27	247513	/
11:28	247777	N
11:29	248083	f
11:30	248408	f
11:30	248684	f
11:31	248986	/
11:32	249268	/
11:33	249551	/
11:33	249836	/
11:34	250135	/
11:35	250430	/
11:36	250726	/
11:37	251037	/
11:38	251323	f
11:38	251570	N
11:39	251875	f
11:40	252153	f
11:41	252450	f
11:42	252747	/
11:42	253055	/
11:43	253356	/
11:44	253636	/
11:45	253918	/
11:46	254204	/
11:46	254501	/
11:47	254794	/
11:48	255090	f
11:49	255407	f
11:50	255708	f
11:51	255968	f
11:51	256253	/
11:52	256545	/
11:53	256840	/
11:54	257136	/
11:55	257449	/
11:55	257743	/
11:56	258018	/
11:57	258296	f
11:58	258593	f
11:59	258883	f
11:59	259180	/
12:00	259492	/
12:01	259790	/
12:02	260072	/
12:03	260353	/
12:03	260634	/
12:04	260931	/
12:05	261225	f
12:06	261484	N
12:07	261808	/
12:08	262095	/
12:08	262375	/
12:09	262659	/
12:10	262952	/
12:11	263243	/
12:12	263539	/
12:12	263850	f
12:13	264137	f
12:14	264434	f
12:15	264700	f
12:16	264992	/
12:16	265285	/
12:17	265578	/
12:18	265889	/
12:19	266193	/
12:20	266477	/
12:20	266759	/
12:21	267042	/
12:22	267326	f
12:23	267619	f
12:24	267943	f
12:25	268234	f
12:25	268521	f
12:26	268807	/
12:27	269089	/
12:28	269383	/
12:29	269672	/
12:29	269966	/
12:30	270283	/
12:31	270578	/
12:32	270856	/
12:33	271107	N
12:33	271405	f
12:34	271702	f
12:35	272007	f
12:36	272298	f
12:37	272599	f
12:38	272887	/
12:38	273169	/
12:39	273450	/
12:40	273742	/
12:41	274035	/
12:42	274338	/
12:42	274646	/
12:43	274937	/
12:44	275200	N
12:45	275490	f
12:46	275805	f
12:46	276073	f
12:47	276368	/
12:48	276681	/
12:49	276977	/
12:50	277258	/
12:50	277540	/
12:51	277829	/
12:52	278117	/
12:53	278405	f
12:54	278717	f
12:55	279044	f
12:55	279309	/
12:56	279595	/
12:57	279878	/
12:58	280165	/
12:59	280453	/
12:59	280756	/
13:00	281064	/
13:01	281356	f
13:02	281645	f
13:03	281928	f
13:03	282221	/
13:04	282508	/
13:05	282799	/
13:06	283116	/
13:07	283416	/
13:08	283695	/
13:08	283978	/
13:09	284268	f
13:10	284556	f
13:11	284840	f
13:12	285157	/
13:12	285461	/
13:13	285751	/
13:14	286035	/
13:15	286318	/
13:16	286606	/
13:16	286891	/
13:17	287191	f
13:18	287512	f
13:19	287792	f
13:20	288084	/
13:21	288367	/
13:21	288655	/
13:22	288940	/
13:23	289232	/
13:24	289547	/
13:25	289846	/
13:25	290119	N
13:26	290407	f
13:27	290718	f
13:28	290989	f
13:29	291275	/
13:29	291589	/
13:30	291894	/
13:31	292180	/
13:32	292463	/
13:33	292747	/
13:33	293033	/
13:34	293292	N
13:35	293608	f
13:36	293937	f
13:37	294205	f
13:38	294501	/
13:38	294783	/
13:39	295072	/
13:40	295353	/
13:41	295643	/
13:42	295956	/
13:42	296253	/
13:43	296521	N
13:44	296822	f
13:45	297107	f
13:46	297393	/
13:46	297676	/
13:47	297988	/
13:48	298295	/
13:49	298584	/
13:50	298869	/
13:50	299157	/
13:51	299433	f
13:52	299730	f
13:53	300024	f
13:54	300334	/
13:55	300628	/
13:55	300922	/
13:56	301207	/
13:57	301494	/
13:58	301774	/
13:59	302067	f
13:59	302382	f
14:00	302670	f
14:01	302967	/
14:02	303251	/
14:03	303543	/
14:03	303825	/
14:04	304108	/
14:05	304420	/
14:06	304724	f
14:07	305037	f
14:08	305301	/
14:08	305591	/
14:09	305877	/
14:10	306158	/
14:11	306460	/
14:12	306767	/
14:12	307063	f
14:13	307360	f
14:14	307638	f
14:15	307928	/
14:16	308207	/
14:16	308498	/
14:17	308806	/
14:18	309101	/
14:19	309401	/
14:20	309682	f
14:21	309984	f
14:21	310261	f
14:22	310544	/
14:23	310854	/
14:24	311156	/
14:25	311448	/
14:25	311737	/
14:26	312028	/
14:27	312298	N
14:28	312585	f
14:29	312918	f
14:29	313198	/
14:30	313492	/
14:31	313791	/
14:32	314078	/
14:33	314365	/
14:34	314643	/
14:34	314934	/
14:35	315234	f
14:36	315545	f
14:37	315833	f
14:38	316125	/
14:38	316417	/
14:39	316695	/
14:40	316975	/
14:41	317286	/
14:42	317587	/
14:42	317872	f
14:43	318168	f
14:44	318484	f
14:45	318748	/
14:46	319027	/
14:47	319326	/
14:47	319631	/
14:48	319927	/
14:49	320221	/
14:50	320510	/
14:51	320804	f
14:51	321098	f
14:52	321368	/
14:53	321674	/
14:54	321969	/
14:55	322269	/
14:56	322561	/
14:56	322851	/
14:57	323133	f
14:58	323426	f
14:59	323714	/
15:00	324012	/
15:00	324307	/
15:01	324603	/
15:02	324899	/
15:03	325179	/
15:04	325469	f
15:04	325769	f
15:05	326059	f
15:06	326354	/
15:07	326650	/
15:08	326945	/
15:08	327232	/
15:09	327508	/
15:10	327809	f
15:11	328115	f
15:12	328397	f
15:13	328698	/
15:13	328991	/
15:14	329283	/
15:15	329559	/
15:16	329844	/
15:17	330150	f
15:17	330459	f
15:18	330740	f
15:19	331038	/
15:20	331332	/
15:21	331612	/
15:21	331888	/
15:22	332189	/
15:23	332485	f
15:24	332780	f
15:25	333075	f
15:25	333358	V
15:26	333655	/
15:27	333933	/
15:28	334228	/
15:29	334525	/
15:30	334812	f
15:30	335114	f
15:31	335438	f
15:32	335708	/
15:33	335986	/
15:34	336269	/
15:34	336568	/
15:35	336862	/
15:36	337162	/
15:37	337453	f
15:38	337757	f
15:39	338057	f
15:39	338315	f
15:40	338614	/
15:41	338908	/
15:42	339204	/
15:43	339502	/
15:43	339803	/
15:44	340088	/
15:45	340364	f
15:46	340677	f
15:47	340957	/
15:47	341253	/
15:48	341554	/
15:49	341854	/
15:50	342145	/
15:51	342422	/
15:51	342709	/
15:52	343001	f
15:53	343314	f
15:54	343600	f
15:55	343900	/
15:56	344200	/
15:56	344479	/
15:57	344755	/
15:58	345056	/
15:59	345351	f
16:00	345646	f
16:00	345944	f
16:01	346247	/
16:02	346530	/
16:03	346806	/
16:04	347102	/
16:04	347395	/
16:05	347689	/
16:06	347994	f
16:07	348286	f
16:08	348581	/
16:09	348861	/
16:09	349146	/
16:10	349440	/
16:11	349734	/
16:12	350035	f
16:13	350336	f
16:13	350636	f
16:14	350916	/
16:15	351196	/
16:16	351490	/
16:17	351779	/
16:17	352075	/
16:18	352374	f
16:19	352676	f
16:20	352964	f
16:21	353239	/
16:22	353536	/
16:22	353827	/
16:23	354115	/
16:24	354416	/
16:25	354723	/
16:26	354993	N
16:26	355284	f
16:27	355571	f
16:28	355861	/
16:29	356153	/
16:30	356456	/
16:30	356755	/
16:31	357057	/
16:32	357337	/
16:33	357618	f
16:34	357900	N
16:35	358201	f
16:35	358525	f
16:36	358801	/
16:37	359107	/
16:38	359389	/
16:39	359666	/
16:39	359962	/
16:40	360247	/
16:41	360538	/
16:42	360810	N
16:43	361132	f
16:43	361421	f
16:44	361699	/
16:45	361992	/
16:46	362281	/
16:47	362566	/
16:47	362866	/
16:48	363169	/
16:49	363461	f
16:50	363752	f
16:51	364062	f
16:52	364326	/
16:52	364613	/
16:53	364913	/
16:54	365215	/
16:55	365525	/
16:56	365813	/
16:56	366089	f
16:57	366382	f
16:58	366666	f
16:59	366953	/
17:00	367257	/
17:01	367564	/
17:01	367857	/
17:02	368137	/
17:03	368431	/
17:04	368720	f
17:04	368999	f
17:05	369300	/
17:06	369606	/
17:07	369907	/
17:08	370191	/
17:09	370477	/
17:09	370765	/
17:10	371053	f
17:11	371347	f
17:12	371652	/
17:13	371958	/
17:14	372245	/
17:14	372526	/
17:15	372819	/
17:16	373104	/
17:17	373395	f
17:18	373719	f
17:18	374005	/
17:19	374298	/
17:20	374576	/
17:21	374873	/
17:22	375158	/
17:22	375439	/
17:23	375724	N
17:24	376043	f
17:25	376340	f
17:26	376627	/
17:26	376918	/
17:27	377204	/
17:28	377488	/
17:29	377785	/
17:30	378086	/
17:31	378378	N
17:31	378673	f
17:32	378981	f
17:33	379253	/
17:34	379531	/
17:35	379822	/
17:35	380123	/
17:36	380434	/
17:37	380730	/
17:38	381011	/
17:39	381286	N
17:39	381593	f
17:40	381859	f
17:41	382156	/
17:42	382466	/
17:43	382766	/
17:44	383049	/
17:44	383343	/
17:45	383628	/
17:46	383891	N
17:47	384194	f
17:48	384524	f
17:48	384805	/
17:49	385097	/
17:50	385386	/
17:51	385673	/
17:52	385954	/
17:52	386247	/
17:53	386546	f
17:54	386861	f
17:55	387147	f
17:56	387432	/
17:57	387726	/
17:57	388007	/
17:58	388286	/
17:59	388584	/
18:00	388895	/
18:01	389199	f
18:01	389480	f
18:02	389779	/
18:03	390063	/
18:04	390339	/
18:05	390627	/
18:05	390933	/
18:06	391238	f
18:07	391532	f
18:08	391820	f
18:09	392107	/
18:09	392385	/
18:10	392676	/
18:11	392974	/
18:12	393282	/
18:13	393582	f
18:14	393889	f
18:14	394160	/
18:15	394439	/
18:16	394723	/
18:17	395017	/
18:18	395331	/
18:18	395629	/
18:19	395911	f
18:20	396222	f
18:21	396494	f
18:22	396769	/
18:22	397061	/
18:23	397367	/
18:24	397670	/
18:25	397964	/
18:26	398262	/
18:27	398549	f
18:27	398840	f
18:28	399108	/
18:29	399407	/
18:30	399714	/
18:31	400009	/
18:31	400306	/
18:32	400596	/
18:33	400874	/
18:34	401149	N
18:35	401460	f
18:36	401764	f
18:36	402064	/
18:37	402353	/
18:38	402651	/
18:39	402934	/
18:40	403208	/
18:40	403496	/
18:41	403806	/
18:42	404091	N
18:43	404397	f
18:44	404699	f
18:44	404985	/
18:45	405259	/
18:46	405545	/
18:47	405843	/
18:48	406147	/
18:49	406442	/
18:49	406741	/
18:50	407030	f
18:51	407327	f
18:52	407592	/
18:53	407884	/
18:53	408194	/
18:54	408491	/
18:55	408788	/
18:56	409085	/
18:57	409360	f
18:57	409637	f
18:58	409928	f
18:59	410238	/
19:00	410540	/
19:01	410832	/
19:02	411136	/
19:02	411421	/
19:03	411692	/
19:04	411985	f
19:05	412302	f
19:06	412581	/
19:06	412874	/
19:07	413181	/
19:08	413469	/
19:09	413744	/
19:10	414028	/
19:10	414329	f
19:11	414620	f
19:12	414920	/
19:13	415220	/
19:14	415514	/
19:14	415793	/
19:15	416077	/
19:16	416369	f
19:17	416670	f
19:18	416968	f
19:19	417265	/
19:19	417570	/
19:20	417852	/
19:21	418127	/
19:22	418412	/
19:23	418707	f
19:23	419006	f
19:24	419304	f
19:25	419617	/
19:26	419906	/
19:27	420179	/
19:27	420459	/
19:28	420755	/
19:29	421055	/
19:30	421334	N
19:31	421658	f
19:32	421970	f
19:32	422226	f
19:33	422511	/
19:34	422794	/
19:35	423095	/
19:36	423396	/
19:36	423695	/
19:37	423997	/
19:38	424261	N
19:39	424558	f
19:40	424835	f
19:40	425139	/
19:41	425437	/
19:42	425732	/
19:43	426044	/
19:44	426329	/
19:45	426602	/
19:45	426872	N
19:46	427179	f
19:47	427473	f
19:48	427772	/
19:49	428080	f
19:49	428377	/
19:50	428655	/
19:51	428937	/
19:52	429224	/
19:53	429522	f
19:53	429821	f
19:54	430122	f
19:55	430426	/
19:56	430706	/
19:57	430990	/
19:57	431274	/
19:58	431571	/
19:59	431868	/
20:00	432180	f
20:01	432474	f
20:02	432767	/
20:02	433041	/
20:03	433323	/
20:04	433618	/
20:05	433912	/
20:06	434213	f
20:07	434537	f
20:07	434818	/
20:08	435095	/
20:09	435375	/
20:10	435661	/
20:10	435956	/
20:11	436252	/
20:12	436569	f
20:13	436862	f
20:14	437149	/
20:15	437431	/
20:15	437713	/
20:16	438008	/
20:17	438301	/
20:18	438603	/
20:19	438921	f
20:19	439196	f
20:20	439479	/
20:21	439760	/
20:22	440055	/
20:23	440349	/
20:24	440644	/
20:24	440958	f
20:25	441254	f
20:26	441528	f
20:27	441809	/
20:28	442101	/
20:28	442390	/
20:29	442683	/
20:30	442997	/
20:31	443297	/
20:32	443562	N
20:32	443871	f
20:33	444138	f
20:34	444431	/
20:35	444724	/
20:36	445030	/
20:37	445336	/
20:37	445626	/
20:38	445911	/
20:39	446179	N
20:40	446484	f
20:41	446767	f
20:41	447066	/
20:42	447379	/
20:43	447673	/
20:44	447956	/
20:45	448238	/
20:45	448528	/
20:46	448816	/
20:47	449105	f
20:48	449441	f
20:49	449723	f
20:50	450006	/
20:50	450287	/
20:51	450575	/
20:52	450859	/
20:53	451147	/
20:54	451461	/
20:54	451753	N
20:55	452059	f
20:56	452339	f
20:57	452622	/
20:58	452911	/
20:58	453200	/
20:59	453500	/
21:00	453809	/
21:01	454103	/
21:02	454393	f
21:03	454693	f
21:03	454966	/
21:04	455249	/
21:05	455542	/
21:06	455858	/
21:07	456154	/
21:07	456440	/
21:08	456724	f
21:09	457022	f
21:10	457298	/
21:11	457584	/
21:11	457898	/
21:12	458199	/
21:13	458487	/
21:14	458772	/
21:15	459062	f
21:15	459358	f
21:16	459629	/
21:17	459936	/
21:18	460243	/
21:19	460539	/
21:20	460833	/
21:20	461115	/
21:21	461409	f
21:22	461684	f
21:23	461978	/
21:24	462293	/
21:24	462590	/
21:25	462879	/
21:26	463164	/
21:27	463456	/
21:28	463738	f
21:28	464021	f
21:29	464340	/
21:30	464642	/
21:31	464931	/
21:32	465217	/
21:33	465503	/
21:33	465788	/
21:34	466051	N
21:35	466384	f
21:36	466675	f
21:37	466971	/
21:37	467263	/
21:38	467547	/
21:39	467833	/
21:40	468116	/
21:41	468412	/
21:41	468698	N
21:42	469008	f
21:43	469300	f
21:44	469587	/
21:45	469878	/
21:45	470159	/
21:46	470443	/
21:47	470755	/
21:48	471054	/
21:49	471342	/
21:50	471610	N
21:50	471927	f
21:51	472194	f
21:52	472475	/
21:53	472784	/
21:54	473085	/
21:54	473378	/
21:55	473670	/
21:56	473959	/
21:57	474231	N
21:58	474514	f
21:58	474816	f
21:59	475123	/
22:00	475421	/
22:01	475720	/
22:02	476008	/
22:03	476297	/
22:03	476575	/
22:04	476860	f
22:05	477179	f
22:06	477466	/
22:07	477764	/
22:07	478055	/
22:08	478347	/
22:09	478627	/
22:10	478905	/
22:11	479214	f
22:11	479512	f
22:12	479804	f
22:13	480102	/
22:14	480396	/
22:15	480676	/
22:15	480954	/
22:16	481257	/
22:17	481557	/
22:18	481862	f
22:19	482146	f
22:20	482439	/
22:20	482727	/
22:21	483006	/
22:22	483296	/
22:23	483599	/
22:24	483905	f
22:25	484208	f
22:25	484492	f
22:26	484785	/
22:27	485063	/
22:28	485346	/
22:29	485646	/
22:29	485941	/
22:30	486244	f
22:31	486534	f
22:32	486831	/
22:33	487113	/
22:33	487389	/
22:34	487691	/
22:35	487989	/
22:36	488282	/
22:37	488573	f
22:38	488896	f
22:38	489165	/
22:39	489443	/
22:40	489738	/
22:41	490035	/
22:42	490332	/
22:42	490633	/
22:43	490904	N
22:44	491211	f
22:45	491484	f
22:46	491769	/
22:46	492071	/
22:47	492364	/
22:48	492665	/
22:49	492965	/
22:50	493263	/
22:50	493541	/
22:51	493798	N
22:52	494114	f
22:53	494405	f
22:54	494700	/
22:54	494999	/
22:55	495298	/
22:56	495585	/
22:57	495860	/
22:58	496157	/
22:59	496453	/
22:59	496725	N
23:00	497047	f
23:01	497336	f
23:02	497629	/
23:03	497909	/
23:03	498194	/
23:04	498486	/
23:05	498780	/
23:06	499083	/
23:07	499375	f
23:08	499681	f
23:08	499984	f
23:09	500241	/
23:10	500537	/
23:11	500828	/
23:12	501123	/
23:12	501426	/
23:13	501730	/
23:14	502012	/
23:15	502292	f
23:16	502606	f
23:16	502872	/
23:17	503163	/
23:18	503464	/
23:19	503771	/
23:20	504063	/
23:20	504340	/
23:21	504634	f
23:22	504939	f
23:23	505213	/
23:24	505513	/
23:25	505816	/
23:25	506113	/
23:26	506392	/
23:27	506678	/
23:28	506967	f
23:29	507257	f
23:29	507558	f
23:30	507859	/
23:31	508166	/
23:32	508446	/
23:33	508725	/
23:33	509021	/
23:34	509305	/
23:35	509599	f
23:36	509922	f
23:37	510208	/
23:38	510495	/
23:38	510773	/
23:39	511069	/
23:40	511353	/
23:41	511640	/
23:42	511938	f
23:42	512247	f
23:43	512544	f
23:44	512826	/
23:45	513116	/
23:46	513406	/
23:46	513690	/
23:47	513988	/
23:48	514292	/
23:49	514573	N
23:50	514880	f
23:50	515155	/
23:51	515443	/
23:52	515725	/
23:53	516023	/
23:54	516325	/
23:55	516633	/
23:55	516923	/
23:56	517198	f
23:57	517471	N
23:58	517778	f
23:59	518048	f
23:59	518349	/
24:00	518661	/
24:01	518957	/
24:02	519239	/
24:03	519533	/
24:03	519818	/
24:04	520093	f
24:05	520391	f
24:06	520723	f
24:07	521007	f
24:08	521294	/
24:08	521582	/
24:09	521871	/
24:10	522151	/
24:11	522446	/
24:12	522750	/
24:12	523060	f
24:13	523370	f
24:14	523631	/
24:15	523924	/
24:16	524205	/
24:16	524493	/
24:17	524792	/
24:18	525103	/
24:19	525396	f
24:20	525690	f
24:21	525974	f
24:21	526258	/
24:22	526536	/
24:23	526831	/
24:24	527141	/
24:25	527442	/
24:25	527732	f
24:26	528017	f
24:27	528334	f
24:28	528590	/
24:29	528880	/
24:29	529183	/
24:30	529492	/
24:31	529783	/
24:32	530070	/
24:33	530357	f
24:34	530653	f
24:34	530926	/
24:35	531227	/
24:36	531534	/
24:37	531828	/
24:38	532119	/
24:38	532409	/
24:39	532681	f
24:40	532969	f
24:41	533264	f
24:42	533578	/
24:42	533876	/
24:43	534162	/
24:44	534458	/
24:45	534741	/
24:46	535017	/
24:46	535288	N
24:47	535624	f
24:48	535912	f
24:49	536204	/
24:50	536503	/
24:51	536788	/
24:51	537065	/
24:52	537350	/
24:53	537649	/
24:54	537927	N
24:55	538240	f
24:55	538521	f
24:56	538815	/
24:57	539093	/
24:58	539378	/
24:59	539673	/
24:59	539981	/
25:00	540278	/
25:01	540416	+
25:01	540554	N
25:02	540851	N
25:03	541153	f
25:03	541417	f
25:04	541560	+
25:04	541704	/
25:05	542011	/
25:06	542315	/
25:07	542607	/
25:08	542911	/
25:08	543195	/
25:09	543458	N
25:10	543763	f
25:11	544053	f
25:12	544360	/
25:12	544656	/
25:13	544957	/
25:14	545246	/
25:15	545521	/
25:16	545806	/
25:16	546095	f
25:17	546422	f
25:18	546700	/
25:19	546998	/
25:20	547294	/
25:21	547571	/
25:21	547854	/
25:22	548145	/
25:23	548463	f
25:24	548769	f
25:25	549044	/
25:25	549348	/
25:26	549631	/
25:27	549906	/
25:28	550188	/
25:29	550491	/
25:30	550808	f
25:30	551087	f
25:31	551397	/
25:32	551688	/
25:33	551961	/
25:34	552243	/
25:34	552538	/
25:35	552842	f
25:36	553157	f
25:37	553442	/
25:38	553736	/
25:38	554014	/
25:39	554298	/
25:40	554583	/
25:41	554887	/
25:42	555183	f
25:43	555504	f
25:43	555787	/
25:44	556067	/
25:45	556347	/
25:46	556631	/
25:47	556932	/
25:47	557231	/
25:48	557513	N
25:49	557840	f
25:50	558122	/
25:51	558397	/
25:51	558675	/
25:52	558971	/
25:53	559275	/
25:54	559570	/
25:55	559879	/
25:55	560153	N
25:56	560449	f
25:57	560720	f
25:58	561008	/
25:59	561304	/
26:00	561602	/
26:00	561907	/
26:01	562205	/
26:02	562486	/
26:03	562771	/
26:03	563029	N
26:04	563341	f
26:05	563632	f
26:06	563930	/
26:07	564239	/
26:08	564527	/
26:08	564806	/
26:09	565088	/
26:10	565384	/
26:11	565678	/
26:12	565951	N
26:13	566289	f
26:13	566573	f
26:14	566848	/
26:15	567127	/
26:16	567419	/
26:16	567713	/
26:17	568006	/
26:18	568318	/
26:19	568620	f
26:20	568905	f
26:21	569181	f
26:21	569466	/
26:22	569756	/
26:23	570049	/
26:24	570355	/
26:25	570658	/
26:25	570946	/
26:26	571226	f
26:27	571517	f
26:28	571806	f
26:29	572100	/
26:29	572397	/
26:30	572710	/
26:31	573002	/
26:32	573282	/
26:33	573564	/
26:34	573856	f
26:34	574171	f
26:35	574441	/
26:36	574757	/
26:37	575054	/
26:38	575334	/
26:38	575616	/
26:39	575903	/
26:40	576191	f
26:41	576499	f
26:42	576793	f
26:43	577099	/
26:43	577385	/
26:44	577670	/
26:45	577954	/
26:46	578242	/
26:47	578521	f
26:47	578827	f
26:48	579142	f
26:49	579437	/
26:50	579727	/
26:51	580009	/
26:51	580302	/
26:52	580588	/
26:53	580879	/
26:54	581181	N
26:55	581490	f
26:56	581793	f
26:56	582056	f
26:57	582350	/
26:58	582634	/
26:59	582923	/
27:00	583241	/
27:00	583543	/
27:01	583830	/
27:02	584087	N
27:03	584381	f
27:04	584666	f
27:04	584953	/
27:05	585259	/
27:06	585566	/
27:07	585859	/
27:08	586149	/
27:08	586433	/
27:09	586721	/
27:10	586986	N
27:11	587287	f
27:12	587624	f
27:13	587899	f
27:13	588192	/
27:14	588476	/
27:15	588768	/
27:16	589051	/
27:17	589336	/
27:17	589651	/
27:18	589793	+
27:18	589936	N
27:19	590218	N
27:20	590538	f
27:21	590805	f
27:21	590947	+
27:21	591089	/
27:22	591371	/
27:23	591684	/
27:24	591986	/
27:25	592276	/
27:26	592566	/
27:26	592849	f
27:27	593153	f
27:28	593416	f
27:29	593718	/
27:30	594026	/
27:30	594323	/
27:31	594619	/
27:32	594903	/
27:33	595192	/
27:34	595474	f
27:34	595784	f
27:35	596071	/
27:36	596368	/
27:37	596666	/
27:38	596953	/
27:39	597244	/
27:39	597523	/
27:40	597801	f
27:41	598121	f
27:42	598415	f
27:43	598707	/
27:43	599000	/
27:44	599294	/
27:45	599574	/
27:46	599853	/
27:47	600160	/
27:47	600460	f
27:48	600779	f
27:49	601047	/
27:50	601337	/
27:51	601623	/
27:51	601903	/
27:52	602198	/
27:53	602503	/
27:54	602797	f
27:55	603096	f
27:56	603411	f
27:56	603681	f
27:57	603959	/
27:58	604246	/
27:59	604549	/
28:00	604844	/
28:00	605145	/
28:01	605439	/
28:02	605714	N
28:03	606008	f
28:04	606283	f
28:04	606588	/
28:05	606886	/
28:06	607182	/
28:07	607480	/
28:08	607778	/
28:09	608059	/
28:09	608336	/
28:10	608632	f
28:11	608936	f
28:12	609254	f
28:13	609527	/
28:13	609824	/
28:14	610112	/
28:15	610389	/
28:16	610679	/
28:17	610981	/
28:17	611278	/
28:18	611580	/
28:19	611869	f
28:20	612169	f
28:21	612467	f
28:22	612729	/
28:22	613028	/
28:23	613321	/
28:24	613622	/
28:25	613922	/
28:26	614219	/
28:26	614499	/
28:27	614768	f
28:28	615074	f
28:29	615370	f
28:30	615666	/
28:31	615965	/
28:31	616267	/
28:32	616552	/
28:33	616828	/
28:34	617125	/
28:35	617418	/
28:35	617713	f
28:36	618028	f
28:37	618311	/
28:38	618604	/
28:39	618882	/
28:39	619170	/
28:40	619465	/
28:41	619758	/
28:42	620057	f
28:43	620348	f
28:44	620673	f
28:44	620933	/
28:45	621216	/
28:46	621507	/
28:47	621794	/
28:48	622100	/
28:48	622402	/
28:49	622700	f
28:50	622979	f
28:51	623262	f
28:52	623558	/
28:52	623847	/
28:53	624142	/
28:54	624444	/
28:55	624753	/
28:56	625040	/
28:56	625303	N
28:57	625600	f
28:58	625923	f
28:59	626186	/
29:00	626486	/
29:01	626794	/
29:01	627088	/
29:02	627365	/
29:03	627657	/
29:04	627947	/
29:05	628226	f
29:05	628533	f
29:06	628862	f
29:07	629134	/
29:08	629414	/
29:09	629701	/
29:09	629989	/
29:10	630273	/
29:11	630576	/
29:12	630877	/
29:13	631173	f
29:14	631459	N
29:14	631758	f
29:15	632039	f
29:16	632323	/
29:17	632614	/
29:18	632916	/
29:18	633227	/
29:19	633520	/
29:20	633799	/
29:21	634095	/
29:22	634366	N
29:22	634649	f
29:23	634973	f
29:24	635265	f
29:25	635566	/
29:26	635850	/
29:27	636141	/
29:27	636426	/
29:28	636707	/
29:29	637003	/
29:30	637303	f
29:31	637612	f
29:32	637925	f
29:32	638188	/
29:33	638476	/
29:34	638757	/
29:35	639054	/
29:35	639357	/
29:36	639665	/
29:37	639957	/
29:38	640243	f
29:39	640555	f
29:40	640813	/
29:40	641097	/
29:41	641396	/
29:42	641710	/
29:43	642005	/
29:44	642290	/
29:44	642586	f
29:45	642866	f
29:46	643147	f
29:47	643443	/
29:48	643751	/
29:49	644052	/
29:49	644340	/
29:50	644634	/
29:51	644919	/
29:52	645197	f
29:53	645495	f
29:53	645788	f
29:54	646097	/
29:55	646391	/
29:56	646682	/
29:57	646970	/
29:57	647247	/
29:58	647539	/
29:59	647836	f
30:00	648169	f
30:01	648442	/
30:02	648730	/
30:02	649022	/
30:03	649300	/
30:04	649580	/
30:05	649876	/
