0:00	197	N
0:01	459	N
0:01	708	N
0:02	965	N
0:03	1222	N
0:04	1479	N
0:04	1741	N
0:05	2015	N
0:06	2287	N
0:07	2550	N
0:07	2803	N
0:08	3052	N
0:09	3303	N
0:09	3563	N
0:10	3835	N
0:11	4102	N
0:12	4371	N
0:12	4635	N
0:13	4901	N
0:14	5154	N
0:15	5407	N
0:15	5561	V
0:16	5923	N
0:17	6195	N
0:17	6468	N
0:18	6736	N
0:19	6996	N
0:20	7246	N
0:20	7506	N
0:21	7767	N
0:22	7922	V
0:23	8290	N
0:23	8564	N
0:24	8829	N
0:25	9093	N
0:25	9350	N
0:26	9600	N
0:27	9845	N
0:28	10105	N
0:28	10380	N
0:29	10645	N
0:30	10908	N
0:31	11168	N
0:31	11424	N
0:32	11676	N
0:33	11931	N
0:33	12187	N
0:34	12449	N
0:35	12625	V
0:36	12987	N
0:36	13252	N
0:37	13507	N
0:38	13755	N
0:38	14006	N
0:39	14253	N
0:40	14517	N
0:41	14786	N
0:41	15053	N
0:42	15311	N
0:43	15575	N
0:43	15834	N
0:44	16084	N
0:45	16335	N
0:46	16590	N
0:46	16854	N
0:47	17128	N
0:48	17398	N
0:49	17660	N
0:49	17916	N
0:50	18168	N
0:51	18426	N
0:51	18682	N
0:52	18946	N
0:53	19213	N
0:54	19483	N
0:54	19747	N
0:55	20008	N
0:56	20262	N
0:56	20515	N
0:57	20764	N
0:58	21031	N
0:58	21202	V
0:59	21576	N
1:00	21838	N
1:01	22100	N
1:02	22351	N
1:02	22604	N
1:03	22860	N
1:04	23114	N
1:04	23376	N
1:05	23641	N
1:06	23916	N
1:07	24180	N
1:07	24429	N
1:08	24677	N
1:09	24842	V
1:09	25191	N
1:10	25462	N
1:11	25732	N
1:12	25997	N
1:12	26254	N
1:13	26516	N
1:14	26771	N
1:15	27020	N
1:15	27273	N
1:16	27529	N
1:17	27795	N
1:17	28066	N
1:18	28335	N
1:19	28590	N
1:20	28835	N
1:20	29089	N
1:21	29349	N
1:22	29605	N
1:22	29869	N
1:23	30137	N
1:24	30401	N
1:25	30662	N
1:25	30739	~
1:25	30917	N
1:26	31165	N
1:26	31306	~
1:27	31416	N
1:27	31669	N
1:28	31934	N
1:29	32207	N
1:30	32476	N
1:30	32735	N
1:31	32986	N
1:32	33234	N
1:33	33490	N
1:33	33749	N
1:34	34010	N
1:35	34274	N
1:35	34542	N
1:36	34818	N
1:37	35076	N
1:38	35322	N
1:38	35571	N
1:39	35830	N
1:40	36093	N
1:41	36366	N
1:41	36633	N
1:42	36793	V
1:43	37151	N
1:43	37413	N
1:44	37666	N
1:45	37915	N
1:46	38166	N
1:46	38430	N
1:47	38692	N
1:48	38959	N
1:48	39225	N
1:49	39477	N
1:50	39720	N
1:51	39975	N
1:51	40231	N
1:52	40489	N
1:53	40745	N
1:53	41009	N
1:54	41272	N
1:55	41527	N
1:56	41781	N
1:56	42027	N
1:57	42274	N
1:58	42524	N
1:58	42793	N
1:59	43058	N
2:00	43322	N
2:01	43573	N
2:01	43819	N
2:02	44061	N
2:03	44313	N
2:03	44567	N
2:04	44816	N
2:05	45075	N
2:05	45339	N
2:06	45608	N
2:07	45763	V
2:08	46102	N
2:08	46347	N
2:09	46594	N
2:10	46844	N
2:10	47107	N
2:11	47371	N
2:12	47635	N
2:13	47888	N
2:13	48140	N
2:14	48393	N
2:15	48643	N
2:15	48889	N
2:16	49144	N
2:17	49410	N
2:17	49678	N
2:18	49943	N
2:19	50198	N
2:20	50448	N
2:20	50692	N
2:21	50949	N
2:22	51207	N
2:22	51472	N
2:23	51736	N
2:24	52001	N
2:25	52257	N
2:25	52512	N
2:26	52769	N
2:27	53020	N
2:27	53271	N
2:28	53537	N
2:29	53815	N
2:30	54078	N
2:30	54333	N
2:31	54588	N
2:32	54837	N
2:33	55091	N
2:33	55349	N
2:34	55607	N
2:35	55873	N
2:35	56140	N
2:36	56413	N
2:37	56667	N
2:38	56918	N
2:38	57165	N
2:39	57314	V
2:40	57666	N
2:40	57941	N
2:41	58210	N
2:42	58473	N
2:43	58730	N
2:43	58985	N
2:44	59239	N
2:45	59493	N
2:45	59742	N
2:46	60003	N
2:47	60270	N
2:48	60543	N
2:48	60808	N
2:49	61062	N
2:50	61311	N
2:50	61559	N
2:51	61819	N
2:52	62081	N
2:53	62349	N
2:53	62609	N
2:54	62876	N
2:55	63129	N
2:56	63382	N
2:56	63635	N
2:57	63886	N
2:58	64135	N
2:58	64400	N
2:59	64674	N
3:00	64937	N
3:01	65187	N
3:01	65437	N
3:02	65686	N
3:03	65933	N
3:03	66189	N
3:04	66444	N
3:05	66706	N
3:05	66867	V
3:06	67228	N
3:07	67487	N
3:08	67736	N
3:08	67978	N
3:09	68225	N
3:10	68475	N
3:10	68740	N
3:11	69009	N
3:12	69269	N
3:13	69522	N
3:13	69772	N
3:14	70027	N
3:15	70273	N
3:15	70523	N
3:16	70780	N
3:17	71046	N
3:18	71311	N
3:18	71579	N
3:19	71831	N
3:20	72079	N
3:20	72326	N
3:21	72485	V
3:22	72846	N
3:23	73117	N
3:23	73378	N
3:24	73643	N
3:25	73903	N
3:25	74159	N
3:26	74299	V
3:27	74659	N
3:28	74917	N
3:28	75183	N
3:29	75459	N
3:30	75727	N
3:31	75983	N
3:31	76232	N
3:32	76484	N
3:33	76736	N
3:33	76996	N
3:34	77257	N
3:35	77526	N
3:36	77787	N
3:36	78055	N
3:37	78312	N
3:38	78561	N
3:38	78807	N
3:39	79062	N
3:40	79316	N
3:41	79584	N
3:41	79856	N
3:42	80120	N
3:43	80369	N
3:43	80624	N
3:44	80882	N
3:45	81130	N
3:46	81379	N
3:46	81641	N
3:47	81906	N
3:48	82171	N
3:48	82437	N
3:49	82690	N
3:50	82934	N
3:51	83182	N
3:51	83444	N
3:52	83703	N
3:53	83970	N
3:53	84231	N
3:54	84493	N
3:55	84746	N
3:56	85003	N
3:56	85257	N
3:57	85506	N
3:58	85760	N
3:58	86031	N
3:59	86305	N
4:00	86570	N
4:01	86821	N
4:01	87072	N
4:02	87318	N
4:03	87572	N
4:03	87832	N
4:04	88094	N
4:05	88365	N
4:06	88631	N
4:06	88748	~
4:06	88901	N
4:07	89157	N
4:08	89408	N
4:09	89656	N
4:09	89912	N
4:10	90172	N
4:11	90444	N
4:11	90715	N
4:12	90981	N
4:13	91233	N
4:14	91486	N
4:14	91746	N
4:15	92000	N
4:16	92254	N
4:17	92522	N
4:17	92791	N
4:18	93060	N
4:19	93330	N
4:19	93583	N
4:20	93829	N
4:21	94084	N
4:22	94354	N
4:22	94619	N
4:23	94885	N
4:24	95156	N
4:24	95347	|
4:25	95424	N
4:25	95681	N
4:26	95936	N
4:27	96189	N
4:27	96445	N
4:28	96707	N
4:29	96985	N
4:30	97256	N
4:30	97522	N
4:31	97777	N
4:32	98030	N
4:32	98278	N
4:33	98541	N
4:33	98621	~
4:34	98809	N
4:35	99077	N
4:35	99343	N
4:36	99617	N
4:37	99881	N
4:38	100135	N
4:38	100383	N
4:39	100635	N
4:40	100894	N
4:41	101165	N
4:41	101440	N
4:42	101700	N
4:43	101958	N
4:43	102114	V
4:44	102469	N
4:44	102556	~
4:45	102720	N
4:46	102973	N
4:46	103234	N
4:47	103501	N
4:48	103763	N
4:48	104025	N
4:49	104278	N
4:50	104528	N
4:51	104771	N
4:51	105027	N
4:52	105293	N
4:53	105559	N
4:53	105817	N
4:54	106081	N
4:55	106338	N
4:55	106430	|
4:56	106589	N
4:56	106663	~
4:56	106842	N
4:57	107090	N
4:58	107344	N
4:58	107603	N
4:59	107876	N
5:00	108026	V
5:01	108394	N
5:01	108646	N
5:02	108896	N
5:03	109140	N
5:03	109396	N
5:04	109661	N
5:05	109926	N
5:06	110187	N
5:06	110453	N
5:07	110715	N
5:08	110963	N
5:08	111206	N
5:09	111358	~
5:09	111456	N
5:10	111711	N
5:11	111976	N
5:11	112247	N
5:12	112508	N
5:12	112560	~
5:13	112762	N
5:13	113014	N
5:14	113270	N
5:15	113518	N
5:16	113773	N
5:16	114034	N
5:17	114304	N
5:18	114567	N
5:18	114833	N
5:19	115088	N
5:20	115337	N
5:21	115582	N
5:21	115838	N
5:22	116104	N
5:23	116375	N
5:23	116638	N
5:24	116900	N
5:25	117157	N
5:26	117412	N
5:26	117667	N
5:27	117917	N
5:28	118173	N
5:28	118343	V
5:29	118714	N
5:30	118982	N
5:31	119238	N
5:31	119486	N
5:32	119737	N
5:33	119913	|
5:33	119988	N
5:34	120243	N
5:34	120508	N
5:35	120776	N
5:36	121034	N
5:36	121301	N
5:37	121560	N
5:38	121812	N
5:39	122056	N
5:39	122311	N
5:40	122568	N
5:41	122838	N
5:41	123113	N
5:42	123248	~
5:42	123377	N
5:43	123628	N
5:44	123879	N
5:44	124141	N
5:45	124200	~
5:45	124392	N
5:46	124644	N
5:46	124911	N
5:47	125182	N
5:48	125449	N
5:49	125715	N
5:49	125969	N
5:50	126111	V
5:51	126467	N
5:52	126734	N
5:52	127000	N
5:53	127270	N
5:54	127536	N
5:54	127798	N
5:55	128052	N
5:56	128309	N
5:57	128565	N
5:57	128820	N
5:58	129080	N
5:59	129351	N
6:00	129626	N
6:00	129891	N
6:01	130143	N
6:02	130392	N
6:02	130645	N
6:03	130900	N
6:04	131161	N
6:05	131425	N
6:05	131691	N
6:06	131954	N
6:07	132219	N
6:07	132469	N
6:08	132718	N
6:09	132964	N
6:10	133223	N
6:10	133485	N
6:11	133758	N
6:12	134026	N
6:13	134289	N
6:13	134536	N
6:14	134789	N
6:15	135047	N
6:15	135304	N
6:16	135559	N
6:17	135828	N
6:18	136095	N
6:18	136365	N
6:19	136626	N
6:20	136878	N
6:20	137126	N
6:21	137379	N
6:22	137650	N
6:23	137917	N
6:23	138184	N
6:24	138448	N
6:25	138713	N
6:26	138962	N
6:26	139219	N
6:27	139474	N
6:28	139730	N
6:28	139994	N
6:29	140273	N
6:30	140545	N
6:31	140808	N
6:31	141061	N
6:32	141309	N
6:33	141559	N
6:33	141823	N
6:34	142093	N
6:35	142360	N
6:36	142624	N
6:36	142894	N
6:37	143156	N
6:38	143409	N
6:39	143657	N
6:39	143912	N
6:40	144176	N
6:41	144449	N
6:42	144722	N
6:42	144986	N
6:43	145245	N
6:44	145496	N
6:44	145753	N
6:45	146008	N
6:46	146267	N
6:47	146531	N
6:47	146801	N
6:48	146948	V
6:49	147327	N
6:49	147583	N
6:50	147834	N
6:51	148082	N
6:52	148342	N
6:52	148613	N
6:53	148885	N
6:54	149143	N
6:55	149402	N
6:55	149654	N
6:56	149905	N
6:57	150161	N
6:57	150414	N
6:58	150672	N
6:59	150937	N
7:00	151213	N
7:00	151473	N
7:01	151724	N
7:02	151972	N
7:02	152224	N
7:03	152474	N
7:04	152734	N
7:05	153001	N
7:05	153268	N
7:06	153530	N
7:07	153796	N
7:07	154053	N
7:08	154305	N
7:09	154556	N
7:10	154816	N
7:10	155079	N
7:11	155354	N
7:12	155628	N
7:13	155886	N
7:13	156137	N
7:14	156390	N
7:15	156647	N
7:15	156804	V
7:16	157166	N
7:17	157432	N
7:18	157698	N
7:18	157964	N
7:19	158223	N
7:20	158470	N
7:20	158586	|
7:20	158719	N
7:21	158968	N
7:22	159231	N
7:23	159497	N
7:23	159765	N
7:24	160028	N
7:25	160283	N
7:25	160531	N
7:26	160782	N
7:27	161035	N
7:28	161288	N
7:28	161547	N
7:29	161815	N
7:30	162090	N
7:30	162350	N
7:31	162595	N
7:32	162842	N
7:33	163094	N
7:33	163347	N
7:34	163608	N
7:34	163759	V
7:35	164142	N
7:36	164406	N
7:37	164669	N
7:38	164923	N
7:38	165172	N
7:39	165421	N
7:40	165681	N
7:40	165846	V
7:41	166216	N
7:42	166493	N
7:43	166752	N
7:43	166999	N
7:44	167254	N
7:45	167512	N
7:46	167769	N
7:46	168028	N
7:47	168297	N
7:48	168562	N
7:48	168827	N
7:49	169088	N
7:50	169335	N
7:51	169586	N
7:51	169843	N
7:52	170115	N
7:53	170382	N
7:54	170650	N
7:54	170916	N
7:55	171176	N
7:56	171428	N
7:56	171683	N
7:57	171937	N
7:58	172198	N
7:59	172461	N
7:59	172732	N
8:00	173000	N
8:01	173262	N
8:01	173510	N
8:02	173758	N
8:03	173932	V
8:04	174273	N
8:04	174543	N
8:05	174806	N
8:06	175072	N
8:07	175329	N
8:07	175591	N
8:08	175839	N
8:09	176088	N
8:09	176337	N
8:10	176601	N
8:11	176871	N
8:12	177138	N
8:12	177402	N
8:13	177659	N
8:14	177902	N
8:14	178156	N
8:15	178413	N
8:16	178670	N
8:17	178925	N
8:17	179192	N
8:18	179453	N
8:19	179713	N
8:19	179972	N
8:20	180217	N
8:21	180463	N
8:22	180721	N
8:22	180995	N
8:23	181259	N
8:24	181522	N
8:24	181784	N
8:25	182039	N
8:26	182289	N
8:27	182544	N
8:27	182799	N
8:28	183060	N
8:29	183323	N
8:29	183598	N
8:30	183866	N
8:31	184124	N
8:32	184373	N
8:32	184621	N
8:33	184872	N
8:34	185138	N
8:35	185410	N
8:35	185677	N
8:36	185942	N
8:37	186205	N
8:37	186465	N
8:38	186718	N
8:39	186967	N
8:40	187223	N
8:40	187490	N
8:41	187762	N
8:42	188031	N
8:43	188289	N
8:43	188543	N
8:44	188790	N
8:45	189047	N
8:45	189300	N
8:46	189560	N
8:47	189821	N
8:48	190092	N
8:48	190356	N
8:49	190613	N
8:50	190867	N
8:50	191117	N
8:51	191365	N
8:52	191627	N
8:53	191901	N
8:53	192170	N
8:54	192430	N
8:55	192692	N
8:55	192943	N
8:56	193196	N
8:57	193453	N
8:58	193711	N
8:58	193976	N
8:59	194244	N
9:00	194520	N
9:01	194784	N
9:01	195037	N
9:02	195287	N
9:03	195542	N
9:03	195798	N
9:04	196069	N
9:05	196339	N
9:06	196607	N
9:06	196870	N
9:07	197136	N
9:08	197392	N
9:09	197646	N
9:09	197901	N
9:10	198164	N
9:10	198328	V
9:11	198704	N
9:12	198753	~
9:12	198974	N
9:13	199229	N
9:14	199477	N
9:14	199731	N
9:15	199987	N
9:16	200243	N
9:16	200503	N
9:17	200765	N
9:18	201029	N
9:18	201161	~
9:19	201291	N
9:19	201545	N
9:20	201790	N
9:21	202040	N
9:21	202295	N
9:22	202561	N
9:23	202829	N
9:24	203096	N
9:24	203354	N
9:25	203609	N
9:26	203858	N
9:26	204110	N
9:27	204367	N
9:28	204629	N
9:29	204889	N
9:29	205158	N
9:30	205431	N
9:31	205691	N
9:32	205935	N
9:32	206183	N
9:33	206436	N
9:34	206697	N
9:34	206967	N
9:35	207237	N
9:36	207501	N
9:37	207765	N
9:37	208030	N
9:38	208281	N
9:39	208530	N
9:39	208788	N
9:40	209058	N
9:41	209328	N
9:42	209602	N
9:42	209868	N
9:43	210125	N
9:44	210242	~
9:44	210373	N
9:45	210634	N
9:45	210892	N
9:46	211157	N
9:47	211424	N
9:48	211691	N
9:48	211952	N
9:49	212080	~
9:49	212213	N
9:50	212473	N
9:50	212720	N
9:51	212971	N
9:52	213236	N
9:53	213513	N
9:53	213784	N
9:54	214048	N
9:55	214309	N
9:56	214564	N
9:56	214821	N
9:57	215081	N
9:58	215338	N
9:58	215605	N
9:59	215876	N
10:00	216154	N
10:01	216417	N
10:01	216672	N
10:02	216922	N
10:03	217179	N
10:03	217436	N
10:04	217704	N
10:05	217978	N
10:06	218247	N
10:06	218507	N
10:07	218766	N
10:08	219023	N
10:09	219277	N
10:09	219529	N
10:10	219792	N
10:11	220061	N
10:12	220334	N
10:12	220607	N
10:13	220867	N
10:14	221115	N
10:14	221371	N
10:15	221634	N
10:16	221897	N
10:17	222161	N
10:17	222431	N
10:18	222700	N
10:19	222962	N
10:20	223225	N
10:20	223476	N
10:21	223730	N
10:22	223990	N
10:22	224268	N
10:23	224537	N
10:24	224806	N
10:25	225067	N
10:25	225231	~
10:25	225324	N
10:26	225457	~
10:26	225578	N
10:27	225838	N
10:28	226096	N
10:28	226362	N
10:29	226629	N
10:30	226905	N
10:31	227170	N
10:31	227334	|
10:31	227426	N
10:32	227678	N
10:33	227932	N
10:33	228185	N
10:34	228316	~
10:34	228455	N
10:35	228729	N
10:36	228998	N
10:36	229260	N
10:37	229523	N
10:38	229780	N
10:38	230035	N
10:39	230288	N
10:40	230548	N
10:41	230817	N
10:41	231091	N
10:42	231261	V
10:43	231623	N
10:44	231878	N
10:44	232128	N
10:45	232390	N
10:46	232656	N
10:47	232920	N
10:47	233189	N
10:48	233461	N
10:49	233724	N
10:49	233984	N
10:50	234237	N
10:51	234491	N
10:52	234747	N
10:52	235025	N
10:53	235299	N
10:54	235568	N
10:55	235831	N
10:55	236091	N
10:56	236343	N
10:57	236599	N
10:57	236862	N
10:58	237132	N
10:59	237399	N
11:00	237676	N
11:00	237772	~
11:00	237945	N
11:01	238086	V
11:02	238446	N
11:03	238699	N
11:03	238952	N
11:04	239215	N
11:05	239493	N
11:06	239760	N
11:06	240018	N
11:07	240279	N
11:08	240537	N
11:08	240638	~
11:08	240789	N
11:09	241036	N
11:10	241292	N
11:11	241560	N
11:11	241828	N
11:12	241980	V
11:13	242352	N
11:13	242609	N
11:14	242856	N
11:15	243108	N
11:16	243366	N
11:16	243631	N
11:17	243894	N
11:18	244157	N
11:18	244417	N
11:19	244673	N
11:20	244925	N
11:21	245172	N
11:21	245422	N
11:22	245684	N
11:23	245958	N
11:23	246059	~
11:23	246225	N
11:24	246484	N
11:25	246739	N
11:26	246994	N
11:26	247245	N
11:27	247498	N
11:28	247754	N
11:28	248018	N
11:29	248282	N
11:30	248556	N
11:31	248816	N
11:31	248880	~
11:31	249067	N
11:32	249312	N
11:33	249564	N
11:33	249816	N
11:34	250084	N
11:35	250360	N
11:36	250625	N
11:36	250883	N
11:37	251139	N
11:38	251398	N
11:39	251649	N
11:39	251896	N
11:40	252158	N
11:41	252424	N
11:41	252697	N
11:42	252969	N
11:43	253225	N
11:44	253475	N
11:44	253729	N
11:45	253992	N
11:46	254253	N
11:46	254424	V
11:47	254793	N
11:48	255064	N
11:49	255326	N
11:49	255588	N
11:50	255840	N
11:51	256094	N
11:52	256354	N
11:52	256630	N
11:53	256905	N
11:54	257179	N
11:55	257444	N
11:55	257700	N
11:56	257955	N
11:57	258217	N
11:58	258482	N
11:58	258752	N
11:59	259022	N
12:00	259299	N
12:01	259572	N
12:01	259831	N
12:02	260083	N
12:03	260338	N
12:03	260599	N
12:04	260873	N
12:05	261155	N
12:06	261430	N
12:06	261697	N
12:07	261961	N
12:08	262226	N
12:09	262486	N
12:09	262738	N
12:10	263006	N
12:11	263281	N
12:12	263557	N
12:12	263832	N
12:13	264093	N
12:14	264344	N
12:15	264601	N
12:15	264869	N
12:16	265132	N
12:17	265400	N
12:17	265673	N
12:18	265944	N
12:19	266208	N
12:20	266471	N
12:20	266725	N
12:21	266979	N
12:22	267244	N
12:23	267526	N
12:23	267796	N
12:24	268066	N
12:25	268328	N
12:26	268584	N
12:26	268838	N
12:27	269099	N
12:28	269362	N
12:28	269524	V
12:29	269898	N
12:30	270176	N
12:31	270439	N
12:31	270698	N
12:32	270947	N
12:33	271199	N
12:34	271456	N
12:34	271728	N
12:35	272001	N
12:36	272267	N
12:37	272528	N
12:37	272789	N
12:38	273048	N
12:39	273304	N
12:39	273558	N
12:40	273821	N
12:41	274092	N
12:42	274369	N
12:42	274638	N
12:43	274894	N
12:43	274936	~
12:44	275145	N
12:44	275397	N
12:45	275661	N
12:46	275922	N
12:47	276186	N
12:47	276453	N
12:48	276721	N
12:49	276980	N
12:50	277232	N
12:50	277485	N
12:51	277741	N
12:51	277816	~
12:52	277995	N
12:52	278270	N
12:53	278543	N
12:54	278813	N
12:55	279072	N
12:55	279327	N
12:56	279576	N
12:57	279832	N
12:58	280099	N
12:58	280363	N
12:59	280624	N
13:00	280895	N
13:01	281166	N
13:01	281419	N
13:02	281662	N
13:03	281913	N
13:03	282166	N
13:04	282430	N
13:05	282703	N
13:06	282967	N
13:06	283230	N
13:07	283487	N
13:08	283746	N
13:08	283993	N
13:09	284243	N
13:10	284500	N
13:11	284766	N
13:11	285030	N
13:12	285297	N
13:13	285556	N
13:13	285807	N
13:14	286053	N
13:15	286306	N
13:16	286561	N
13:16	286826	N
13:17	287088	N
13:18	287351	N
13:18	287611	N
13:19	287869	N
13:20	288122	N
13:21	288368	N
13:21	288619	N
13:22	288874	N
13:23	289146	N
13:23	289415	N
13:24	289678	N
13:25	289928	N
13:26	290180	N
13:26	290428	N
13:27	290682	N
13:28	290943	N
13:28	291208	N
13:29	291470	N
13:30	291741	N
13:31	292008	N
13:31	292262	N
13:32	292505	N
13:33	292755	N
13:33	293010	N
13:34	293273	N
13:35	293546	N
13:36	293811	N
13:36	294069	N
13:37	294324	N
13:38	294583	N
13:38	294830	N
13:39	295079	N
13:40	295337	N
13:41	295603	N
13:41	295865	N
13:42	296132	N
13:43	296391	N
13:43	296540	V
13:44	296884	N
13:45	297141	N
13:46	297399	N
13:46	297662	N
13:47	297923	N
13:48	298184	N
13:49	298441	N
13:49	298698	N
13:50	298951	N
13:51	299197	N
13:51	299445	N
13:52	299704	N
13:53	299977	N
13:54	300242	N
13:54	300504	N
13:55	300755	N
13:56	301006	N
13:56	301255	N
13:57	301511	N
13:58	301767	N
13:58	302032	N
13:59	302295	N
14:00	302560	N
14:01	302821	N
14:01	303073	N
14:02	303314	N
14:03	303561	N
14:03	303812	N
14:04	304076	N
14:05	304344	N
14:06	304606	N
14:06	304863	N
14:07	305113	N
14:07	305213	~
14:08	305365	N
14:08	305610	N
14:09	305855	N
14:10	306104	N
14:11	306367	N
14:11	306626	N
14:12	306887	N
14:13	307144	N
14:13	307391	N
14:14	307628	N
14:14	307748	~
14:15	307875	N
14:15	308132	N
14:16	308391	N
14:17	308647	N
14:18	308905	N
14:18	309165	N
14:19	309415	N
14:20	309664	N
14:20	309909	N
14:21	310151	N
14:22	310400	N
14:22	310667	N
14:23	310931	N
14:24	311191	N
14:25	311441	N
14:25	311582	V
14:26	311927	N
14:27	312177	N
14:27	312430	N
14:28	312680	N
14:29	312936	N
14:29	313195	N
14:30	313458	N
14:31	313702	N
14:31	313878	~
14:32	313943	N
14:32	314180	N
14:33	314406	N
14:34	314659	N
14:34	314911	N
14:35	315173	N
14:35	315337	~
14:36	315417	N
14:36	315505	~
14:36	315665	N
14:37	315907	N
14:38	316146	N
14:38	316385	N
14:39	316625	N
14:40	316868	N
14:40	317120	N
14:41	317375	N
14:42	317634	N
14:43	317891	N
14:43	318134	N
14:44	318375	N
14:45	318616	N
14:45	318869	N
14:46	319121	N
14:47	319376	N
14:47	319630	N
14:48	319891	N
14:49	320143	N
14:49	320388	N
14:50	320633	N
14:51	320880	N
14:52	321125	N
14:52	321384	N
14:53	321652	N
14:54	321913	N
14:54	322162	N
14:55	322411	N
14:56	322658	N
14:56	322904	N
14:57	323154	N
14:58	323406	N
14:59	323668	N
14:59	323929	N
15:00	324194	N
15:01	324453	N
15:01	324702	N
15:02	324820	|
15:02	324945	N
15:03	325196	N
15:04	325444	N
15:04	325708	N
15:05	325981	N
15:06	326241	N
15:06	326496	N
15:07	326751	N
15:08	327009	N
15:09	327257	N
15:09	327509	N
15:10	327766	N
15:11	328035	N
15:11	328303	N
15:12	328571	N
15:13	328829	N
15:14	329079	N
15:14	329330	N
15:15	329589	N
15:16	329852	N
15:17	330120	N
15:17	330387	N
15:18	330652	N
15:19	330912	N
15:19	331169	N
15:20	331422	N
15:21	331673	N
15:22	331928	N
15:22	332194	N
15:23	332470	N
15:24	332740	N
15:24	332998	N
15:25	333249	N
15:26	333501	N
15:27	333757	N
15:27	334013	N
15:28	334274	N
15:29	334542	N
15:30	334807	N
15:30	335079	N
15:31	335338	N
15:32	335588	N
15:32	335836	N
15:33	336092	N
15:34	336350	N
15:35	336621	N
15:35	336895	N
15:36	337162	N
15:37	337417	N
15:37	337675	N
15:38	337931	N
15:39	338184	N
15:40	338437	N
15:40	338703	N
15:41	338969	N
15:42	339240	N
15:43	339510	N
15:43	339763	N
15:44	340009	N
15:45	340266	N
15:45	340530	N
15:46	340793	N
15:47	341059	N
15:48	341331	N
15:48	341594	N
15:49	341855	N
15:50	342114	N
15:51	342363	N
15:51	342617	N
15:52	342879	N
15:53	343155	N
15:53	343419	N
15:54	343688	N
15:55	343947	N
15:56	344201	N
15:56	344454	N
15:57	344715	N
15:58	344979	N
15:59	345246	N
15:59	345516	N
16:00	345792	N
16:01	346059	N
16:01	346319	N
16:02	346568	N
16:03	346825	N
16:04	347086	N
16:04	347363	N
16:05	347638	N
16:06	347911	N
16:07	348173	N
16:07	348437	N
16:08	348698	N
16:09	348956	N
16:10	349211	N
16:10	349477	N
16:11	349749	N
16:12	350019	N
16:13	350286	N
16:13	350542	N
16:14	350792	N
16:15	351048	N
16:15	351315	N
16:16	351583	N
16:17	351847	N
16:17	351991	~
16:18	352119	N
16:18	352387	N
16:19	352649	N
16:20	352911	N
16:21	353166	N
16:21	353423	N
16:22	353688	N
16:23	353970	N
16:23	354237	N
16:24	354501	N
16:25	354763	N
16:26	355019	N
16:26	355277	N
16:27	355543	N
16:28	355812	N
16:29	356084	N
16:29	356359	N
16:30	356644	N
16:31	356908	N
16:32	357167	N
16:32	357423	N
16:33	357684	N
16:34	357951	N
16:35	358226	N
16:35	358494	N
16:36	358763	N
16:37	359023	N
16:37	359156	|
16:38	359284	N
16:38	359501	|
16:38	359537	N
16:39	359794	N
16:40	360055	N
16:40	360324	N
16:41	360595	N
16:42	360867	N
16:43	361132	N
16:43	361387	N
16:44	361634	N
16:45	361892	N
16:45	362154	N
16:46	362424	N
16:47	362689	N
16:48	362956	N
16:48	363163	|
16:48	363220	N
16:49	363479	N
16:50	363734	N
16:51	363984	N
16:51	364047	~
16:51	364238	N
16:52	364497	N
16:53	364777	N
16:54	365046	N
16:54	365308	N
16:55	365563	N
16:55	365699	~
16:56	365817	N
16:56	366067	N
16:57	366273	|
16:57	366321	N
16:58	366580	N
16:59	366843	N
16:59	367105	N
17:00	367375	N
17:01	367638	N
17:01	367888	N
17:02	368132	N
17:03	368382	N
17:03	368631	N
17:04	368895	N
17:05	369166	N
17:06	369426	N
17:06	369680	N
17:07	369933	N
17:08	370186	N
17:08	370388	|
17:08	370429	N
17:09	370673	N
17:09	370778	|
17:10	370927	N
17:10	371085	|
17:11	371189	N
17:11	371374	V
17:12	371677	|
17:12	371709	N
17:13	371964	N
17:13	372064	~
17:13	372207	N
17:14	372444	N
17:15	372690	N
17:15	372941	N
17:16	372992	~
17:16	373196	N
17:17	373449	N
17:18	373706	N
17:18	373959	N
17:19	374211	N
17:20	374458	N
17:20	374699	N
17:21	374877	|
17:21	374944	N
17:22	375193	N
17:22	375455	N
17:23	375718	N
17:24	375979	N
17:24	376046	|
17:25	376226	N
17:25	376469	N
17:26	376709	N
17:27	376956	N
17:27	377203	N
17:28	377452	N
17:29	377709	N
17:29	377965	N
17:30	378227	N
17:31	378476	N
17:31	378718	N
17:32	378955	N
17:33	379198	N
17:34	379443	N
17:34	379700	N
17:35	379964	N
17:36	380220	N
17:36	380469	N
17:37	380714	N
17:38	380963	N
17:38	381203	N
17:39	381441	N
17:40	381689	N
17:40	381947	N
17:41	382200	N
17:42	382458	N
17:43	382711	N
17:43	382954	N
17:44	383055	~
17:44	383186	N
17:44	383254	~
17:45	383428	N
17:45	383679	N
17:46	383929	N
17:47	384178	N
17:47	384430	N
17:48	384625	|
17:48	384684	N
17:48	384795	|
17:49	384927	N
17:49	385169	N
17:50	385408	N
17:50	385535	~
17:51	385643	N
17:51	385878	N
17:52	386132	N
17:53	386395	N
17:53	386438	~
17:54	386647	N
17:54	386892	N
17:55	387136	N
17:56	387378	N
17:56	387615	N
17:57	387781	|
17:57	387859	N
17:57	388051	|
17:58	388103	N
17:58	388355	N
17:59	388607	N
18:00	388864	N
18:00	389120	N
18:01	389365	N
18:02	389599	N
18:02	389838	N
18:03	390081	N
18:04	390331	N
18:04	390589	N
18:05	390845	N
18:06	391103	N
18:07	391350	N
18:07	391594	N
18:08	391841	N
18:09	392085	N
18:09	392324	N
18:10	392570	N
18:11	392830	N
18:11	393092	N
18:12	393349	N
18:13	393594	N
18:13	393839	N
18:14	394077	N
18:15	394324	N
18:16	394574	N
18:16	394831	N
18:17	395082	N
18:18	395338	N
18:18	395590	N
18:19	395839	N
18:20	396085	N
18:20	396325	N
18:21	396567	N
18:22	396817	N
18:23	397083	N
18:23	397342	N
18:24	397597	N
18:24	397774	~
18:25	397848	N
18:25	398094	N
18:26	398333	N
18:26	398476	|
18:27	398581	N
18:27	398606	|
18:27	398834	N
18:28	398994	~
18:28	399087	N
18:29	399341	N
18:29	399391	~
18:30	399604	N
18:30	399870	N
18:31	400119	N
18:32	400361	N
18:32	400606	N
18:33	400854	N
18:34	401106	N
18:34	401371	N
18:35	401635	N
18:36	401894	N
18:37	402145	N
18:37	402399	N
18:38	402648	N
18:39	402897	N
18:39	403143	N
18:40	403399	N
18:41	403663	N
18:42	403932	N
18:42	404200	N
18:43	404448	N
18:44	404692	N
18:44	404938	N
18:45	405021	~
18:45	405195	N
18:46	405447	N
18:46	405708	N
18:47	405873	|
18:47	405967	N
18:48	406229	N
18:49	406481	N
18:49	406731	N
18:50	406979	N
18:50	407036	~
18:51	407225	N
18:51	407472	N
18:52	407731	N
18:53	408002	N
18:54	408266	N
18:54	408359	|
18:54	408515	N
18:55	408763	N
18:56	409008	N
18:56	409250	N
18:57	409497	N
18:58	409743	N
18:58	410001	N
18:59	410256	N
19:00	410517	N
19:01	410780	N
19:01	411026	N
19:02	411263	N
19:03	411506	N
19:03	411751	N
19:04	412009	N
19:05	412275	N
19:05	412532	N
19:06	412785	N
19:07	413034	N
19:07	413102	|
19:08	413282	N
19:08	413370	~
19:08	413524	N
19:09	413767	N
19:09	413921	~
19:10	414014	N
19:10	414272	N
19:11	414531	N
19:12	414796	N
19:12	415058	N
19:13	415306	N
19:14	415547	N
19:14	415799	N
19:15	416056	N
19:16	416309	N
19:17	416568	N
19:17	416834	N
19:18	417094	N
19:19	417352	N
19:20	417603	N
19:20	417701	~
19:20	417850	N
19:21	418097	N
19:22	418350	N
19:22	418616	N
19:23	418879	N
19:24	419143	N
19:24	419396	N
19:25	419642	N
19:26	419882	N
19:27	420132	N
19:27	420191	~
19:27	420383	N
19:28	420633	N
19:29	420889	N
19:29	421151	N
19:30	421417	N
19:31	421669	N
19:31	421913	N
19:32	422156	N
19:33	422403	N
19:34	422654	N
19:34	422914	N
19:35	423176	N
19:36	423435	N
19:36	423688	N
19:37	423939	N
19:38	424189	N
19:38	424435	N
19:39	424673	N
19:40	424924	N
19:41	425182	N
19:41	425444	N
19:42	425703	N
19:43	425951	N
19:43	426195	N
19:44	426333	~
19:44	426432	N
19:45	426679	N
19:45	426927	N
19:46	427075	V
19:47	427429	N
19:48	427689	N
19:48	427938	N
19:49	428183	N
19:50	428428	N
19:50	428666	N
19:51	428903	N
19:52	429144	N
19:52	429403	N
19:53	429547	~
19:53	429656	N
19:54	429909	N
19:54	430157	N
19:55	430396	N
19:56	430628	N
19:56	430866	N
19:57	431110	N
19:58	431348	N
19:58	431594	N
19:59	431843	N
20:00	432098	N
20:00	432341	N
20:01	432577	N
20:02	432803	N
20:02	433031	N
20:03	433262	N
20:04	433506	N
20:04	433555	~
20:05	433976	~
20:05	434000	N
20:06	434247	N
20:06	434389	V
20:07	434712	N
20:08	434961	N
20:08	435189	N
20:09	435414	N
20:10	435671	N
20:10	435895	N
20:11	436140	N
20:12	436387	N
20:12	436631	N
20:13	436864	N
20:14	437093	N
20:14	437328	N
20:15	437547	N
20:16	437803	N
20:16	438047	N
20:17	438289	N
20:18	438537	N
20:18	438778	N
20:19	439032	N
20:20	439248	N
20:20	439474	N
20:21	439703	N
20:22	439929	N
20:22	440174	N
20:23	440418	N
20:24	440662	N
20:24	440893	N
20:25	441123	N
20:25	441344	N
20:26	441583	N
20:27	441811	N
20:27	442046	N
20:28	442280	N
20:29	442520	N
20:29	442766	N
20:30	443016	N
20:31	443253	N
20:31	443480	N
20:32	443710	N
20:33	443941	N
20:33	444182	Q
20:34	444412	N
20:35	444663	N
20:35	444906	N
20:36	445146	N
20:37	445383	Q
20:37	445624	N
20:38	445853	N
20:39	446083	N
20:39	446314	N
20:40	446554	N
20:41	446794	N
20:41	447043	N
20:42	447293	N
20:43	447528	N
20:43	447759	N
20:44	447929	Q
20:45	448218	N
20:45	448455	N
20:46	448693	N
20:47	448931	N
20:47	449173	N
20:48	449413	N
20:49	449651	N
20:49	449886	N
20:50	450112	N
20:50	450337	N
20:51	450564	N
20:52	450801	N
20:52	450945	~
20:52	451046	N
20:53	451291	N
20:54	451533	N
20:54	451766	N
20:55	451997	N
20:56	452224	N
20:56	452454	N
20:57	452687	N
20:58	452919	N
20:58	453162	N
20:59	453404	N
20:59	453472	~
21:00	453654	N
21:00	453897	N
21:01	454134	N
21:02	454358	N
21:02	454585	N
21:03	454815	N
21:03	454933	~
21:04	455055	N
21:04	455299	N
21:05	455544	N
21:06	455790	N
21:06	456025	N
21:07	456262	N
21:08	456498	N
21:08	456672	V
21:08	456815	~
21:09	456951	N
21:09	457186	N
21:10	457427	N
21:11	457668	N
21:11	457830	~
21:11	457913	N
21:12	458159	N
21:13	458392	N
21:13	458616	N
21:14	458840	N
21:15	459076	N
21:15	459307	N
21:16	459542	N
21:17	459780	N
21:17	460020	N
21:18	460255	N
21:19	460491	N
21:19	460722	N
21:20	460945	N
21:21	461166	N
21:21	461388	N
21:22	461626	N
21:22	461872	N
21:23	462109	N
21:24	462342	N
21:24	462577	N
21:25	462806	N
21:25	462854	~
21:26	463028	N
21:26	463254	N
21:27	463486	N
21:27	463635	V
21:28	463950	N
21:29	464194	N
21:30	464440	N
21:30	464520	~
21:30	464673	N
21:31	464906	N
21:32	465128	N
21:32	465350	N
21:33	465573	N
21:33	465807	N
21:34	465991	|
21:34	466046	N
21:35	466285	N
21:35	466388	~
21:35	466528	N
21:36	466762	N
21:37	466998	N
21:37	467230	N
21:38	467456	N
21:39	467679	N
21:39	467905	N
21:40	468138	N
21:41	468377	N
21:41	468622	N
21:42	468866	N
21:43	469101	N
21:43	469327	N
21:44	469553	N
21:44	469781	N
21:45	470013	N
21:46	470248	N
21:46	470481	N
21:47	470721	N
21:48	470963	N
21:48	471204	N
21:49	471437	N
21:50	471665	N
21:50	471893	Q
21:51	472116	N
21:52	472351	N
21:52	472412	~
21:53	472828	~
21:53	472866	N
21:54	473079	N
21:54	473319	N
21:55	473556	N
21:56	473781	N
21:56	474005	N
21:57	474242	N
21:57	474474	N
21:58	474711	N
21:59	474956	N
22:00	475205	N
22:00	475447	N
22:01	475683	N
22:01	475907	N
22:02	476122	N
22:03	476360	N
22:03	476592	N
22:04	476834	N
22:05	477075	N
22:05	477316	N
22:06	477550	N
22:07	477791	N
22:07	478007	N
22:08	478252	N
22:09	478477	N
22:09	478528	~
22:10	478919	~
22:10	478948	N
22:11	479189	N
22:11	479437	N
22:12	479686	N
22:13	479918	N
22:13	480147	N
22:14	480379	N
22:15	480617	N
22:15	480848	N
22:16	481091	N
22:17	481334	N
22:17	481578	N
22:18	481822	N
22:19	482066	N
22:19	482302	N
22:20	482530	N
22:21	482762	N
22:21	482993	N
22:22	483237	N
22:23	483486	N
22:23	483737	N
22:24	483979	N
22:25	484216	N
22:25	484451	N
22:26	484684	N
22:26	484916	N
22:27	485148	N
22:28	485390	N
22:28	485627	N
22:29	485874	N
22:30	486123	N
22:31	486364	N
22:31	486589	N
22:31	486665	~
22:32	486816	N
22:32	487046	N
22:33	487274	N
22:34	487509	N
22:34	487755	N
22:35	487997	N
22:35	488141	V
22:36	488470	N
22:37	488713	N
22:38	488940	N
22:38	489074	~
22:38	489166	N
22:39	489389	N
22:40	489621	N
22:40	489859	N
22:41	490104	N
22:41	490254	V
22:42	490592	N
22:43	490827	N
22:44	491051	N
22:44	491284	N
22:45	491514	N
22:45	491744	N
22:46	491977	N
22:47	492220	N
22:47	492462	N
22:48	492701	N
22:49	492938	N
22:49	493168	N
22:50	493393	N
22:51	493616	N
22:51	493850	N
22:52	494093	N
22:53	494333	N
22:53	494576	N
22:54	494817	N
22:55	495052	N
22:55	495278	N
22:56	495510	N
22:56	495561	|
22:57	495743	N
22:57	495972	N
22:58	496209	N
22:59	496451	N
22:59	496701	N
23:00	496946	N
23:01	497186	N
23:01	497413	N
23:02	497637	N
23:02	497865	N
23:03	498099	N
23:04	498339	N
23:04	498580	N
23:05	498823	N
23:06	499061	N
23:06	499304	N
23:07	499541	N
23:08	499771	N
23:08	499994	N
23:09	500221	N
23:10	500458	N
23:10	500698	N
23:11	500943	N
23:12	501187	N
23:12	501424	N
23:13	501654	N
23:14	501881	N
23:14	502115	N
23:15	502344	N
23:16	502578	N
23:16	502814	N
23:17	503057	N
23:18	503299	N
23:18	503539	N
23:19	503777	N
23:20	504004	N
23:20	504231	N
23:21	504454	N
23:21	504689	N
23:22	504933	N
23:23	505177	N
23:23	505411	N
23:24	505650	N
23:25	505887	N
23:25	506112	N
23:26	506340	N
23:27	506573	N
23:27	506802	N
23:28	507032	N
23:29	507275	N
23:29	507525	N
23:30	507762	N
23:31	507996	N
23:31	508222	N
23:32	508448	N
23:32	508671	N
23:33	508903	N
23:34	509141	N
23:34	509378	N
23:35	509617	N
23:36	509856	N
23:36	510097	N
23:37	510329	N
23:38	510556	N
23:38	510776	N
23:39	511004	N
23:40	511237	N
23:40	511474	N
23:41	511718	N
23:42	511961	N
23:42	512196	N
23:43	512424	N
23:44	512651	N
23:44	512882	N
23:45	513107	N
23:45	513339	N
23:46	513572	N
23:47	513812	N
23:47	514051	N
23:48	514294	N
23:49	514531	N
23:49	514636	~
23:49	514756	N
23:50	514982	N
23:51	515205	N
23:51	515435	N
23:52	515677	N
23:52	515841	~
23:53	515917	N
23:53	516150	N
23:54	516386	N
23:55	516622	N
23:55	516847	N
23:56	517077	N
23:56	517308	N
23:57	517534	N
23:58	517767	N
23:58	518008	N
23:59	518261	N
24:00	518506	N
24:00	518745	N
24:01	518972	N
24:02	519199	N
24:02	519427	N
24:03	519659	N
24:04	519898	N
24:04	520137	N
24:05	520379	N
24:06	520617	N
24:06	520860	N
24:07	521097	N
24:08	521324	N
24:08	521543	N
24:09	521773	N
24:10	522009	N
24:10	522246	N
24:11	522490	N
24:12	522741	N
24:12	522980	N
24:13	523209	N
24:14	523441	N
24:14	523678	N
24:15	523907	N
24:15	524141	N
24:16	524385	N
24:17	524632	N
24:17	524874	N
24:18	525122	N
24:19	525367	N
24:19	525597	N
24:20	525826	N
24:21	525964	V
24:21	526304	N
24:22	526552	N
24:23	526802	N
24:24	527048	N
24:24	527291	N
24:25	527529	N
24:26	527768	N
24:26	528009	N
24:27	528243	N
24:28	528481	N
24:28	528728	N
24:29	528986	N
24:30	529236	N
24:30	529485	N
24:31	529722	N
24:32	529958	N
24:32	530192	N
24:33	530434	N
24:34	530682	N
24:34	530929	N
24:35	531180	N
24:36	531430	N
24:36	531682	N
24:37	531923	N
24:38	532162	N
24:38	532394	N
24:39	532633	N
24:40	532874	N
24:40	533128	N
24:41	533386	N
24:42	533636	N
24:43	533881	N
24:43	534118	N
24:44	534361	N
24:44	534599	N
24:45	534839	N
24:46	535080	N
24:47	535331	N
24:47	535581	N
24:48	535710	|
24:48	535834	N
24:49	536085	N
24:49	536323	N
24:50	536556	N
24:51	536791	N
24:51	537041	N
24:52	537288	N
24:53	537539	N
24:53	537789	N
24:54	538040	N
24:55	538281	N
24:55	538520	N
24:56	538762	N
24:57	538995	N
24:57	539231	N
24:58	539478	N
24:59	539739	N
24:59	539862	~
24:59	539988	N
25:00	540110	~
25:00	540234	N
25:01	540475	N
25:01	540710	N
25:02	540939	N
25:03	541176	N
25:03	541422	N
25:04	541664	N
25:05	541912	N
25:05	541978	~
25:06	542161	N
25:06	542415	N
25:07	542654	N
25:07	542718	~
25:08	542893	N
25:08	543125	N
25:09	543356	N
25:09	543594	N
25:10	543845	N
25:11	544102	N
25:12	544348	N
25:12	544595	N
25:13	544834	N
25:14	545073	N
25:14	545310	N
25:15	545549	N
25:16	545787	N
25:16	546033	N
25:17	546285	N
25:18	546541	N
25:18	546791	N
25:19	547026	N
25:20	547262	N
25:20	547495	N
25:21	547735	N
25:22	547979	N
25:22	548230	N
25:23	548475	N
25:24	548723	N
25:24	548967	N
25:25	549209	N
25:26	549447	N
25:26	549680	N
25:27	549917	N
25:28	550159	N
25:28	550413	N
25:29	550670	N
25:30	550922	N
25:31	551163	N
25:31	551402	N
25:32	551638	N
25:32	551877	N
25:33	552120	N
25:34	552366	N
25:35	552616	N
25:35	552864	N
25:36	553120	N
25:37	553369	N
25:37	553608	N
25:38	553838	N
25:39	554076	N
25:39	554315	N
25:40	554564	N
25:41	554822	N
25:41	555073	N
25:42	555320	N
25:43	555561	N
25:43	555806	N
25:44	556045	N
25:45	556281	N
25:45	556517	N
25:46	556762	N
25:47	557012	N
25:47	557266	N
25:48	557518	N
25:49	557757	N
25:49	557991	N
25:50	558224	N
25:51	558467	N
25:51	558710	N
25:52	558958	N
25:53	559205	N
25:54	559454	N
25:54	559699	N
25:55	559943	N
25:56	560182	N
25:56	560412	N
25:57	560648	N
25:58	560886	N
25:58	561136	N
25:59	561392	N
26:00	561645	N
26:00	561888	N
26:01	562050	~
26:01	562125	N
26:02	562360	N
26:02	562597	N
26:03	562837	N
26:04	563077	N
26:04	563324	N
26:05	563572	N
26:06	563822	N
26:06	563953	~
26:06	564073	N
26:07	564313	N
26:08	564540	N
26:08	564770	N
26:09	565009	N
26:10	565257	N
26:10	565509	N
26:11	565762	N
26:12	566018	N
26:12	566261	N
26:13	566508	N
26:14	566751	N
26:14	566990	N
26:15	567225	N
26:16	567473	N
26:17	567728	N
26:17	567986	N
26:18	568243	N
26:19	568490	N
26:19	568645	V
26:20	568965	N
26:21	569215	N
26:21	569462	N
26:22	569714	N
26:23	569969	N
26:23	570227	N
26:24	570478	N
26:25	570728	N
26:26	570974	N
26:26	571213	N
26:27	571449	N
26:28	571690	N
26:28	571951	N
26:29	572206	N
26:30	572460	N
26:30	572707	N
26:31	572951	N
26:32	573185	N
26:32	573428	N
26:33	573676	N
26:34	573919	N
26:34	574169	N
26:35	574428	N
26:36	574692	N
26:37	574940	N
26:37	575180	N
26:38	575421	N
26:39	575662	N
26:39	575905	N
26:40	576161	N
26:41	576421	N
26:41	576678	N
26:42	576929	N
26:43	577182	N
26:43	577429	N
26:44	577670	N
26:45	577906	N
26:45	578151	N
26:46	578406	N
26:47	578666	N
26:48	578925	N
26:48	579176	N
26:49	579425	N
26:50	579661	N
26:50	579799	V
26:51	580150	N
26:52	580403	N
26:52	580655	N
26:53	580910	N
26:54	581167	N
26:55	581421	N
26:55	581668	N
26:56	581909	N
26:57	582150	N
26:57	582390	N
26:58	582646	N
26:58	582750	~
26:59	582906	N
26:59	583162	N
27:00	583413	N
27:01	583659	N
27:01	583823	~
27:01	583899	N
27:02	584139	N
27:03	584384	N
27:03	584626	N
27:04	584874	N
27:05	585128	N
27:06	585392	N
27:06	585641	N
27:07	585882	N
27:08	586118	N
27:08	586358	N
27:09	586594	N
27:10	586841	N
27:10	587101	N
27:11	587355	N
27:12	587604	N
27:12	587853	N
27:13	588103	N
27:14	588340	N
27:14	588577	N
27:15	588818	N
27:16	589067	N
27:16	589317	N
27:17	589578	N
27:18	589836	N
27:19	590082	N
27:19	590320	N
27:20	590562	N
27:21	590810	N
27:21	591054	N
27:22	591303	N
27:23	591559	N
27:23	591815	N
27:24	592065	N
27:25	592316	N
27:25	592487	~
27:25	592556	N
27:26	592792	N
27:27	593028	N
27:27	593277	N
27:28	593533	N
27:29	593784	N
27:30	594032	N
27:30	594278	N
27:31	594524	N
27:32	594760	N
27:32	594999	N
27:32	595042	~
27:33	595428	~
27:34	595482	Q
27:34	595730	N
27:35	595988	N
27:36	596246	N
27:36	596496	N
27:37	596730	N
27:38	596964	N
27:38	597205	N
27:39	597446	N
27:40	597693	N
27:40	597948	N
27:41	598115	~
27:41	598204	N
27:42	598450	N
27:43	598700	N
27:43	598946	N
27:44	599184	N
27:45	599416	N
27:45	599655	N
27:46	599902	N
27:47	600157	N
27:47	600410	N
27:48	600663	N
27:49	600909	N
27:49	601141	N
27:50	601383	N
27:51	601627	N
27:51	601870	N
27:52	602112	N
27:53	602363	N
27:53	602616	N
27:54	602867	N
27:55	603113	N
27:55	603349	N
27:56	603584	N
27:57	603816	N
27:57	604064	N
27:58	604318	N
27:59	604571	N
28:00	604818	N
28:00	605068	N
28:00	605151	|
28:01	605308	N
28:02	605548	N
28:02	605791	N
28:03	606025	N
28:03	606099	~
28:04	606265	N
28:04	606514	N
28:05	606769	N
28:06	607020	N
28:06	607271	N
28:07	607504	N
28:08	607738	N
28:08	607967	N
28:09	608206	N
28:10	608448	N
28:10	608692	N
28:11	608858	V
28:12	609187	N
28:12	609438	N
28:13	609680	N
28:14	609915	N
28:14	610144	N
28:15	610377	N
28:16	610617	N
28:16	610863	N
28:17	611116	N
28:18	611361	N
28:18	611603	N
28:19	611834	N
28:19	611946	~
28:20	612067	N
28:20	612305	N
28:21	612541	N
28:21	612652	~
28:22	612772	N
28:22	613016	N
28:23	613266	N
28:24	613513	N
28:24	613757	N
28:25	613994	N
28:26	614226	N
28:26	614455	N
28:27	614691	N
28:28	614939	N
28:28	615184	N
28:29	615322	|
28:29	615429	N
28:30	615672	N
28:30	615916	N
28:31	616148	N
28:32	616379	N
28:32	616612	N
28:33	616844	N
28:34	617079	N
28:34	617196	~
28:34	617320	N
28:35	617522	V
28:36	617821	N
28:36	618060	N
28:37	618290	N
28:38	618520	N
28:38	618742	N
28:39	618935	~
28:39	618976	N
28:39	619135	V
28:40	619463	N
28:41	619711	N
28:41	619834	~
28:42	619955	N
28:42	620207	N
28:43	620449	N
28:44	620684	N
28:44	620915	N
28:45	621153	N
28:46	621394	N
28:46	621648	N
28:47	621909	N
28:48	622159	N
28:48	622404	N
28:49	622645	N
28:50	622890	N
28:50	623127	N
28:51	623368	N
28:52	623613	N
28:52	623867	N
28:53	624120	N
28:54	624379	N
28:55	624633	N
28:55	624870	N
28:56	625107	N
28:57	625347	N
28:57	625596	N
28:58	625845	N
28:59	626103	N
28:59	626356	N
29:00	626607	N
29:01	626853	N
29:01	627098	N
29:02	627342	N
29:03	627581	N
29:03	627824	N
29:04	628078	N
29:05	628345	N
29:05	628467	~
29:06	628602	N
29:06	628854	N
29:07	629097	N
29:07	629226	~
29:08	629340	N
29:08	629581	N
29:09	629824	N
29:10	630075	N
29:10	630330	N
29:11	630582	N
29:12	630838	N
29:13	631098	N
29:13	631339	N
29:14	631573	N
29:15	631813	N
29:15	632060	N
29:16	632314	N
29:17	632573	N
29:17	632833	N
29:18	633089	N
29:19	633335	N
29:19	633584	N
29:20	633831	N
29:20	633956	~
29:21	634074	N
29:21	634317	N
29:22	634381	~
29:22	634571	N
29:23	634832	N
29:24	635091	N
29:24	635351	N
29:25	635596	N
29:26	635837	N
29:26	636079	N
29:27	636332	N
29:28	636586	N
29:29	636845	N
29:29	637104	N
29:30	637363	N
29:31	637611	N
29:31	637859	N
29:32	638108	N
29:33	638350	N
29:33	638593	N
29:34	638851	N
29:35	639118	N
29:36	639374	N
29:36	639625	N
29:37	639873	N
29:38	640117	N
29:38	640358	N
29:39	640606	N
29:40	640856	N
29:40	641112	N
29:41	641370	N
29:42	641635	N
29:43	641889	N
29:43	642137	N
29:44	642376	N
29:45	642617	N
29:45	642862	N
29:46	643121	N
29:47	643388	N
29:47	643644	N
29:48	643899	N
29:49	644151	N
29:50	644403	N
29:50	644648	N
29:51	644894	N
29:52	645144	N
29:52	645406	N
29:53	645668	N
29:54	645935	N
29:54	646193	N
29:55	646445	N
29:56	646687	N
29:57	646936	N
29:57	647192	N
29:58	647450	N
29:59	647705	N
29:59	647968	N
30:00	648226	N
30:01	648483	N
30:02	648733	N
30:02	648977	N
30:03	649221	N
30:04	649471	N
30:04	649740	N
