0:00	229	+
0:00	351	N
0:02	724	N
0:03	1086	N
0:04	1448	N
0:05	1829	N
0:06	2197	N
0:07	2571	N
0:08	2918	N
0:08	3234	N
0:09	3571	N
0:10	3931	N
0:11	4281	N
0:12	4612	N
0:13	4947	N
0:14	5255	N
0:15	5558	N
0:16	5863	N
0:17	6174	N
0:17	6472	N
0:18	6757	N
0:19	7045	N
0:20	7336	N
0:21	7615	N
0:21	7897	N
0:22	8183	N
0:23	8475	N
0:24	8758	N
0:25	9025	N
0:25	9271	N
0:26	9517	N
0:27	9769	N
0:27	10038	N
0:28	10315	N
0:29	10583	N
0:30	10885	N
0:31	11244	N
0:32	11588	N
0:33	11935	N
0:34	12287	N
0:35	12649	N
0:36	13001	N
0:36	13319	N
0:37	13617	N
0:38	13754	~
0:38	13918	N
0:39	14227	N
0:40	14564	N
0:41	14903	N
0:42	15231	N
0:43	15561	N
0:44	15900	N
0:45	16245	N
0:46	16605	N
0:47	16998	N
0:48	17354	N
0:49	17701	N
0:50	18026	N
0:50	18333	N
0:51	18644	N
0:52	18964	N
0:53	19275	N
0:54	19579	N
0:55	19869	N
0:55	20136	N
0:56	20406	N
0:57	20690	N
0:58	20989	N
0:59	21300	N
1:00	21637	N
1:01	22008	N
1:02	22364	N
1:02	22494	~
1:03	22689	N
1:03	23016	N
1:04	23364	N
1:05	23719	N
1:06	24048	N
1:07	24362	N
1:08	24683	N
1:09	25010	N
1:10	25338	N
1:11	25697	N
1:12	26068	N
1:13	26434	N
1:14	26787	N
1:15	27138	N
1:16	27471	N
1:17	27810	N
1:18	28161	N
1:19	28500	N
1:20	28801	N
1:20	29105	N
1:21	29408	N
1:22	29712	N
1:23	30024	N
1:24	30334	N
1:25	30630	N
1:25	30920	N
1:26	31190	N
1:27	31462	N
1:28	31726	N
1:28	32014	N
1:29	32336	N
1:30	32450	~
1:30	32667	N
1:31	32867	V
1:31	33045	V
1:32	33476	N
1:33	33653	V
1:33	33820	V
1:35	34305	N
1:36	34666	N
1:36	34858	V
1:38	35280	N
1:38	35468	V
1:38	35638	V
1:40	36101	N
1:40	36290	V
1:42	36757	N
1:42	36951	V
1:43	37123	V
1:44	37581	N
1:45	37913	N
1:45	38092	V
1:46	38267	V
1:47	38755	N
1:48	38939	V
1:48	39118	V
1:49	39590	N
1:50	39903	N
1:51	40085	V
1:51	40255	V
1:53	40714	N
1:53	41033	N
1:54	41222	V
1:54	41395	V
1:56	41837	N
1:56	42003	V
1:57	42439	N
1:58	42625	V
1:58	42798	V
2:00	43275	N
2:00	43460	V
2:01	43906	N
2:02	44084	V
2:03	44507	N
2:04	44692	V
2:04	44867	V
2:05	45350	N
2:06	45547	V
2:07	45976	N
2:08	46156	V
2:08	46323	V
2:09	46777	N
2:10	46956	V
2:11	47413	N
2:12	47606	V
2:12	47780	V
2:13	48225	N
2:14	48413	V
2:14	48568	V
2:16	49009	N
2:16	49191	V
2:17	49374	V
2:18	49835	N
2:18	50022	V
2:20	50424	N
2:20	50607	V
2:21	50773	V
2:22	51212	N
2:22	51400	V
2:24	51850	N
2:24	52037	V
2:25	52211	V
2:26	52661	N
2:26	52836	V
2:27	53275	N
2:28	53578	N
2:29	53873	N
2:30	54074	V
2:30	54253	V
2:31	54716	N
2:32	54888	V
2:32	55063	V
2:34	55559	N
2:34	55747	V
2:36	56227	N
2:36	56376	~
2:37	56548	N
2:37	56842	N
2:38	57174	N
2:39	57495	N
2:40	57684	V
2:40	57875	V
2:42	58345	N
2:42	58534	V
2:43	58992	N
2:44	59170	V
2:44	59332	V
2:45	59595	~
2:46	59769	N
2:46	59861	+
2:46	59954	V
2:47	60432	N
2:48	60636	V
2:49	61082	N
2:50	61277	V
2:50	61503	+
2:51	61729	N
2:52	62099	N
2:53	62488	N
2:54	62823	N
2:55	63128	N
2:56	63389	~
2:56	63499	N
2:56	63624	+
2:56	63691	V
2:57	63864	V
2:57	64035	V
2:58	64349	+
2:59	64568	N
2:59	64766	V
3:01	65287	N
3:02	65705	N
3:03	66104	N
3:04	66485	N
3:05	66886	N
3:06	67302	N
3:08	67702	N
3:09	68094	N
3:10	68464	N
3:11	68869	N
3:12	69270	N
3:13	69635	N
3:13	69758	~
3:14	69964	N
3:15	70280	N
3:16	70618	N
3:17	70998	N
3:18	71407	N
3:19	71815	N
3:20	72193	N
3:21	72559	N
3:22	72945	N
3:23	73336	N
3:24	73730	N
3:25	74087	N
3:26	74408	N
3:27	74742	N
3:28	75138	N
3:29	75514	N
3:30	75907	N
3:31	76287	N
3:32	76670	N
3:33	77024	N
3:35	77400	N
3:36	77771	N
3:37	78156	N
3:38	78500	N
3:39	78856	N
3:40	79261	N
3:41	79650	N
3:42	80033	N
3:43	80374	N
3:44	80686	N
3:45	81019	N
3:46	81390	N
3:47	81804	N
3:48	82213	N
3:49	82585	N
3:50	82944	N
3:51	83307	N
3:52	83663	N
3:53	84034	N
3:54	84435	N
3:55	84836	N
3:56	85213	N
3:57	85600	N
3:58	86011	N
3:59	86380	N
4:00	86755	N
4:02	87132	N
4:03	87507	N
4:04	87888	N
4:05	88298	N
4:06	88711	N
4:07	89096	N
4:08	89430	N
4:09	89742	N
4:10	90057	N
4:11	90398	N
4:12	90777	N
4:13	91133	N
4:14	91454	N
4:14	91753	N
4:15	92046	N
4:16	92345	N
4:17	92658	N
4:18	93015	N
4:19	93393	N
4:20	93713	N
4:21	94034	N
4:22	94375	N
4:23	94716	N
4:24	95041	N
4:24	95380	N
4:25	95716	N
4:26	95905	V
4:27	96335	N
4:28	96662	N
4:29	97008	N
4:30	97330	N
4:31	97620	N
4:31	97909	N
4:32	98217	N
4:33	98513	N
4:34	98819	N
4:35	99134	N
4:36	99471	N
4:37	99807	N
4:38	100118	N
4:39	100442	N
4:39	100788	N
4:40	101148	N
4:41	101518	N
4:43	101883	N
4:43	102229	N
4:44	102559	N
4:45	102909	N
4:46	103301	N
4:47	103667	N
4:49	104041	N
4:50	104409	N
4:51	104778	N
4:52	105123	N
4:53	105503	N
4:54	105898	N
4:55	106288	N
4:56	106631	N
4:57	106977	N
4:58	107366	N
4:59	107775	N
5:00	108153	N
5:01	108537	N
5:02	108920	N
5:03	109289	N
5:04	109668	N
5:05	110064	N
5:06	110432	N
5:07	110787	N
5:08	111136	N
5:09	111470	N
5:10	111833	N
5:11	112226	N
5:12	112616	N
5:13	112955	N
5:14	113305	N
5:15	113672	N
5:16	114059	N
5:17	114403	N
5:18	114738	N
5:19	115082	N
5:20	115428	N
5:21	115764	N
5:22	116121	N
5:23	116532	N
5:24	116909	N
5:25	117279	N
5:26	117652	N
5:27	117990	N
5:28	118363	N
5:29	118759	N
5:30	119140	N
5:31	119485	N
5:32	119850	N
5:33	120223	N
5:35	120603	N
5:36	121005	N
5:37	121402	N
5:38	121770	N
5:39	122119	N
5:40	122470	N
5:41	122810	N
5:42	123138	N
5:43	123484	N
5:44	123883	N
5:45	124248	N
5:46	124645	N
5:47	125032	N
5:48	125416	N
5:49	125788	N
5:50	126116	N
5:51	126452	N
5:52	126812	N
5:53	127168	N
5:54	127564	N
5:55	127955	N
5:56	128310	N
5:57	128677	N
5:58	129049	N
5:59	129448	N
6:00	129819	N
6:01	130184	N
6:02	130539	N
6:03	130871	N
6:04	131233	N
6:05	131632	N
6:06	132012	N
6:07	132382	N
6:08	132722	N
6:09	133078	N
6:10	133465	N
6:11	133835	N
6:12	134207	N
6:13	134569	N
6:14	134904	N
6:15	135251	N
6:16	135616	N
6:17	135978	N
6:18	136354	N
6:19	136724	N
6:20	137058	N
6:21	137406	N
6:22	137757	N
6:23	138100	N
6:24	138461	N
6:25	138818	N
6:26	139173	N
6:27	139530	N
6:28	139875	N
6:29	140237	N
6:30	140573	N
6:31	140921	N
6:32	141278	N
6:33	141639	N
6:34	141974	N
6:35	142336	N
6:36	142713	N
6:37	143070	N
6:38	143397	N
6:39	143708	N
6:40	144035	N
6:40	144355	N
6:41	144680	N
6:42	144989	N
6:43	145315	N
6:44	145687	N
6:45	146066	N
6:46	146453	N
6:47	146824	N
6:48	147192	N
6:49	147539	N
6:50	147873	N
6:51	148192	N
6:52	148520	N
6:53	148888	N
6:54	149302	N
6:55	149687	N
6:56	150032	N
6:57	150386	N
6:58	150780	N
6:59	151179	N
7:01	151573	N
7:02	151932	N
7:03	152288	N
7:04	152665	N
7:05	153053	N
7:06	153431	N
7:06	153566	~
7:07	153786	N
7:08	154088	N
7:08	154381	N
7:09	154535	~
7:09	154683	N
7:10	155006	N
7:11	155320	N
7:12	155634	N
7:13	155941	N
7:13	156227	N
7:14	156499	N
7:15	156773	N
7:16	157052	N
7:17	157340	N
7:17	157616	N
7:18	157896	N
7:19	158171	N
7:20	158433	N
7:20	158691	N
7:21	158938	N
7:22	159202	N
7:23	159484	N
7:23	159785	N
7:24	160122	N
7:25	160482	N
7:26	160654	V
7:27	161075	N
7:28	161416	N
7:29	161750	N
7:30	162076	N
7:31	162425	N
7:32	162779	N
7:32	162955	V
7:33	163279	~
7:33	163369	N
7:34	163708	N
7:35	164068	N
7:36	164415	N
7:37	164589	~
7:37	164736	N
7:38	165061	N
7:39	165402	N
7:40	165753	N
7:41	166100	N
7:42	166419	N
7:43	166725	N
7:43	167029	N
7:44	167361	N
7:45	167696	N
7:46	168040	N
7:47	168401	N
7:48	168770	N
7:49	169111	N
7:50	169437	N
7:51	169757	N
7:52	170091	N
7:53	170466	N
7:54	170824	N
7:55	171158	N
7:56	171484	N
7:57	171830	N
7:58	172200	N
7:59	172563	N
8:00	172909	N
8:00	173105	~
8:01	173258	N
8:02	173599	N
8:03	173919	N
8:03	174234	N
8:04	174557	N
8:05	174888	N
8:06	175187	N
8:07	175490	N
8:08	175783	N
8:09	176070	N
8:09	176383	N
8:10	176700	N
8:11	177016	N
8:12	177330	N
8:13	177617	N
8:14	177888	N
8:14	178186	N
8:15	178495	N
8:16	178832	N
8:17	179177	N
8:18	179502	N
8:19	179810	N
8:20	180122	N
8:21	180442	N
8:22	180781	N
8:23	181141	N
8:24	181501	N
8:25	181831	N
8:25	182146	N
8:26	182464	N
8:27	182784	N
8:28	183104	N
8:29	183259	~
8:29	183435	N
8:30	183777	N
8:31	184117	N
8:32	184431	N
8:33	184751	N
8:34	185091	N
8:35	185453	N
8:36	185806	N
8:37	186148	N
8:38	186495	N
8:38	186821	N
8:39	187148	N
8:40	187508	N
8:41	187851	N
8:42	188209	N
8:43	188549	N
8:44	188871	N
8:45	189197	N
8:46	189514	N
8:47	189834	N
8:48	190151	N
8:49	190481	N
8:49	190787	N
8:50	191105	N
8:51	191451	N
8:52	191814	N
8:53	192181	N
8:54	192549	N
8:55	192904	N
8:56	193232	N
8:57	193566	N
8:58	193912	N
8:59	194255	N
9:00	194606	N
9:01	194956	N
9:02	195281	N
9:03	195604	N
9:04	195962	N
9:05	196323	N
9:06	196685	N
9:07	197050	N
9:08	197399	N
9:09	197735	N
9:10	198069	N
9:11	198412	N
9:12	198763	N
9:13	199135	N
9:14	199484	N
9:15	199803	N
9:15	200137	N
9:16	200495	N
9:17	200856	N
9:18	201216	N
9:19	201548	N
9:20	201858	N
9:21	202167	N
9:22	202479	N
9:23	202778	N
9:24	203083	N
9:24	203388	N
9:25	203682	N
9:26	203971	N
9:27	204264	N
9:28	204577	N
9:29	204917	N
9:30	205294	N
9:31	205666	N
9:32	206010	N
9:33	206359	N
9:34	206703	N
9:35	207067	N
9:36	207461	N
9:37	207831	N
9:38	208182	N
9:39	208530	N
9:40	208889	N
9:41	209250	N
9:42	209614	N
9:43	209970	N
9:44	210305	N
9:45	210642	N
9:46	210989	N
9:47	211353	N
9:48	211714	N
9:49	212080	N
9:50	212421	N
9:50	212755	N
9:51	213115	N
9:52	213473	N
9:53	213630	~
9:53	213828	N
9:54	214184	N
9:55	214524	N
9:56	214817	N
9:57	215131	N
9:58	215477	N
9:59	215842	N
10:00	216204	N
10:01	216534	N
10:02	216849	N
10:03	217159	N
10:04	217486	N
10:05	217812	N
10:05	218136	N
10:06	218463	N
10:07	218793	N
10:08	219122	N
10:09	219450	N
10:10	219789	N
10:11	220142	N
10:12	220517	N
10:13	220877	N
10:14	221225	N
10:15	221597	N
10:16	221990	N
10:17	222392	N
10:18	222773	N
10:19	223138	N
10:20	223497	N
10:21	223843	N
10:22	224204	N
10:23	224563	N
10:24	224898	N
10:25	225229	N
10:26	225549	N
10:27	225857	N
10:28	226176	N
10:29	226496	N
10:30	226821	N
10:30	227130	N
10:31	227420	N
10:32	227719	N
10:33	228014	N
10:34	228338	N
10:35	228677	N
10:36	229005	N
10:36	229183	~
10:37	229332	N
10:37	229669	N
10:38	229987	N
10:39	230288	N
10:40	230594	N
10:41	230926	N
10:42	231266	N
10:43	231610	N
10:44	231944	N
10:45	232246	N
10:46	232565	N
10:46	232910	N
10:47	233259	N
10:48	233596	N
10:49	233921	N
10:50	234243	N
10:51	234569	N
10:52	234891	N
10:53	235228	N
10:53	235337	~
10:54	235577	N
10:55	235934	N
10:56	236268	N
10:57	236594	N
10:58	236909	N
10:58	237236	N
10:59	237582	N
11:00	237933	N
11:01	238245	N
11:02	238565	N
11:03	238896	N
11:04	239256	N
11:05	239617	N
11:06	239960	N
11:07	240279	N
11:08	240574	N
11:09	240863	N
11:09	241171	N
11:10	241514	N
11:11	241866	N
11:12	242232	N
11:13	242598	N
11:14	242961	N
11:15	243304	N
11:16	243662	N
11:17	244021	N
11:18	244356	N
11:19	244698	N
11:20	245030	N
11:21	245367	N
11:22	245723	N
11:23	246073	N
11:24	246414	N
11:25	246748	N
11:26	247045	N
11:27	247339	N
11:27	247637	N
11:28	247951	N
11:29	248257	N
11:30	248563	N
11:31	248862	N
11:32	249161	N
11:32	249457	N
11:33	249743	N
11:34	250043	N
11:35	250353	N
11:36	250653	N
11:37	250959	N
11:37	251236	N
11:38	251519	N
11:39	251813	N
11:40	252118	N
11:41	252475	N
11:42	252829	N
11:43	253162	N
11:44	253472	N
11:44	253762	N
11:45	254064	N
11:46	254357	N
11:47	254669	N
11:48	254996	N
11:49	255307	N
11:50	255614	N
11:50	255919	N
11:51	256105	V
11:52	256508	N
11:53	256810	N
11:54	257112	N
11:55	257403	N
11:55	257493	+
11:55	257583	V
11:56	257770	~
11:56	257959	N
11:57	258138	V
11:58	258533	N
11:58	258715	V
11:59	258921	+
11:59	259127	N
12:00	259418	N
12:01	259601	V
12:02	259991	N
12:02	260167	V
12:03	260596	N
12:04	260888	N
12:05	261167	N
12:05	261287	~
12:06	261479	N
12:06	261667	V
12:07	262044	N
12:08	262314	N
12:09	262577	N
12:09	262749	V
12:10	262918	V
12:11	263355	N
12:12	263646	N
12:12	263825	V
12:13	264211	N
12:14	264385	V
12:15	264759	N
12:16	265041	N
12:17	265336	N
12:17	265523	V
12:18	265932	N
12:19	266211	N
12:19	266387	V
12:20	266557	V
12:21	266939	N
12:22	267120	V
12:23	267492	N
12:23	267761	N
12:24	267946	V
12:24	268130	V
12:25	268507	N
12:26	268592	+
12:26	268678	V
12:27	269003	N
12:27	269191	V
12:28	269526	N
12:29	269719	V
12:30	270043	N
12:30	270225	V
12:31	270547	N
12:32	270721	V
12:32	271027	N
12:33	271192	V
12:34	271515	N
12:34	271687	V
12:35	272046	N
12:36	272220	V
12:37	272579	N
12:37	272749	V
12:38	273080	N
12:39	273242	V
12:39	273592	N
12:40	273767	V
12:41	274133	N
12:41	274313	V
12:43	274683	N
12:43	274849	V
12:44	275191	N
12:44	275361	V
12:45	275687	N
12:46	275876	V
12:47	276204	N
12:47	276380	V
12:48	276719	N
12:49	276897	V
12:50	277226	N
12:50	277390	V
12:51	277719	N
12:51	277883	V
12:52	278233	N
12:53	278414	V
12:54	278770	N
12:54	278942	V
12:55	279270	N
12:56	279430	V
12:57	279740	N
12:57	279900	V
12:58	280228	N
12:58	280401	V
12:59	280728	N
13:00	280901	V
13:01	281224	N
13:01	281389	V
13:02	281707	N
13:02	281866	V
13:03	282203	N
13:04	282362	V
13:05	282714	N
13:05	282884	V
13:06	283228	N
13:07	283401	V
13:08	283714	N
13:08	283872	V
13:09	284183	N
13:09	284353	V
13:10	284690	N
13:11	284862	V
13:12	285200	N
13:12	285364	V
13:13	285694	N
13:14	285848	V
13:14	286168	N
13:15	286331	V
13:16	286663	N
13:16	286830	V
13:17	287182	N
13:18	287355	V
13:19	287720	N
13:19	287882	V
13:20	288230	N
13:21	288389	V
13:22	288744	N
13:22	288916	V
13:23	289296	N
13:24	289477	V
13:25	289830	N
13:25	289996	V
13:26	290318	N
13:26	290487	V
13:27	290817	N
13:28	290993	V
13:29	291330	N
13:29	291509	V
13:30	291843	N
13:31	292014	V
13:32	292336	N
13:32	292503	V
13:33	292835	N
13:33	293002	V
13:34	293365	N
13:35	293539	V
13:36	293921	N
13:36	294108	V
13:37	294443	N
13:38	294622	V
13:39	294948	N
13:39	295133	V
13:40	295466	N
13:41	295665	V
13:42	296005	N
13:42	296184	V
13:43	296534	N
13:44	296701	V
13:45	297054	N
13:45	297223	V
13:46	297611	N
13:47	297789	V
13:48	298206	N
13:48	298385	V
13:49	298793	N
13:50	298961	V
13:51	299365	N
13:52	299539	V
13:53	299996	N
13:53	300180	V
13:55	300609	N
13:55	300786	V
13:56	301211	N
13:57	301387	V
13:58	301826	N
13:58	302009	V
14:00	302442	N
14:00	302631	V
14:01	303032	N
14:02	303209	V
14:03	303575	N
14:03	303753	V
14:04	304158	N
14:05	304343	V
14:06	304782	N
14:07	304967	V
14:08	305378	N
14:08	305550	V
14:09	305972	N
14:10	306162	V
14:11	306598	N
14:12	306790	V
14:13	307187	N
14:13	307378	V
14:14	307750	N
14:15	307931	V
14:16	308343	N
14:17	308531	V
14:18	308961	N
14:18	309157	V
14:19	309569	N
14:20	309742	V
14:21	310134	N
14:22	310326	V
14:23	310721	N
14:23	310919	V
14:24	311314	N
14:25	311497	V
14:26	311872	N
14:26	312048	V
14:27	312215	V
14:28	312638	N
14:28	312815	V
14:30	313216	N
14:30	313398	V
14:31	313583	V
14:32	313994	N
14:32	314152	V
14:33	314546	N
14:34	314722	V
14:35	315115	N
14:35	315317	V
14:36	315692	N
14:37	315880	V
14:38	316221	N
14:38	316392	V
14:39	316749	N
14:40	316933	V
14:41	317315	N
14:41	317493	V
14:42	317873	N
14:43	318049	V
14:44	318436	N
14:45	318609	V
14:46	318997	N
14:46	319176	V
14:47	319583	N
14:48	319781	V
14:49	320165	N
14:49	320343	V
14:50	320516	+
14:50	320689	N
14:51	320949	N
14:52	321140	V
14:52	321324	V
14:53	321758	N
14:54	321851	+
14:54	321945	V
14:55	322330	N
14:55	322512	V
14:56	322885	N
14:57	323064	V
14:58	323472	N
14:59	323673	V
14:59	323869	+
15:00	324066	N
15:00	324349	N
15:01	324616	N
15:02	324877	N
15:02	325060	V
15:03	325229	V
15:04	325622	N
15:05	325910	N
15:06	326191	N
15:06	326463	N
15:07	326553	+
15:07	326644	V
15:08	327026	N
15:08	327201	V
15:09	327578	N
15:10	327798	V
15:11	327977	+
15:11	328157	N
15:12	328438	N
15:12	328621	V
15:13	328790	V
15:14	329208	N
15:14	329390	V
15:16	329766	N
15:16	329977	V
15:17	330368	N
15:18	330650	N
15:19	330946	N
15:19	331036	~
15:20	331240	N
15:20	331550	N
15:21	331727	V
15:22	332173	N
15:23	332514	N
15:24	332837	N
15:25	333164	N
15:26	333515	N
15:27	333836	N
15:28	334166	N
15:29	334515	N
15:30	334854	N
15:31	335177	N
15:31	335496	N
15:32	335796	N
15:33	336107	N
15:34	336422	N
15:35	336750	N
15:36	337067	N
15:37	337361	N
15:37	337655	N
15:38	337947	N
15:39	338235	N
15:40	338551	N
15:41	338874	N
15:42	339186	N
15:43	339505	N
15:43	339819	N
15:44	340122	N
15:45	340437	N
15:46	340780	N
15:47	341115	N
15:48	341456	N
15:49	341799	N
15:50	342110	N
15:51	342430	N
15:52	342773	N
15:53	343110	N
15:54	343449	N
15:54	343772	N
15:55	344088	N
15:56	344406	N
15:57	344704	N
15:58	345022	N
15:59	345357	N
16:00	345683	N
16:01	346011	N
16:01	346145	~
16:02	346322	N
16:02	346615	N
16:03	346899	N
16:04	347169	N
16:05	347457	N
16:05	347753	N
16:06	347955	V
16:07	348121	V
16:08	348514	N
16:08	348604	+
16:08	348695	V
16:09	349047	N
16:10	349247	V
16:11	349589	N
16:11	349772	V
16:12	350124	N
16:13	350322	V
16:13	350489	+
16:14	350657	N
16:14	350904	N
16:15	351083	V
16:15	351245	V
16:16	351652	N
16:17	351850	V
16:18	352243	N
16:19	352514	N
16:19	352780	N
16:20	352956	V
16:20	353107	V
16:22	353546	N
16:22	353743	V
16:23	354156	N
16:24	354350	V
16:25	354748	N
16:26	355013	N
16:26	355273	N
16:27	355537	N
16:28	355810	N
16:29	356114	N
16:30	356424	N
16:30	356611	V
16:31	357013	N
16:32	357301	N
16:33	357572	N
16:34	357875	N
16:35	358213	N
16:35	358410	V
16:36	358830	N
16:37	359135	N
16:38	359417	N
16:38	359603	V
16:39	359769	V
16:40	360202	N
16:41	360397	V
16:42	360817	N
16:43	361113	N
16:43	361386	N
16:44	361564	V
16:44	361721	V
16:45	362144	N
16:46	362335	V
16:47	362777	N
16:48	363076	N
16:49	363365	N
16:50	363646	N
16:50	363922	N
16:51	364198	N
16:52	364482	N
16:53	364788	N
16:54	365084	N
16:54	365375	N
16:55	365676	N
16:56	365969	N
16:57	366246	N
16:58	366521	N
16:58	366816	N
16:59	367131	N
17:00	367442	N
17:01	367732	N
17:02	368015	N
17:03	368302	N
17:03	368594	N
17:04	368896	N
17:05	369202	N
17:06	369504	N
17:07	369794	N
17:08	370090	N
17:08	370399	N
17:09	370704	N
17:10	371019	N
17:11	371348	N
17:12	371665	N
17:13	371991	N
17:14	372305	N
17:14	372594	N
17:15	372922	N
17:16	373279	N
17:17	373628	N
17:18	373941	N
17:19	374246	N
17:20	374526	N
17:21	374816	N
17:21	374986	~
17:22	375130	N
17:22	375473	N
17:23	375803	N
17:24	376161	N
17:25	376517	N
17:26	376842	N
17:27	377189	N
17:28	377550	N
17:29	377769	V
17:30	378246	N
17:31	378447	V
17:32	378856	N
17:33	379154	N
17:34	379454	N
17:34	379791	N
17:35	379989	V
17:36	380163	V
17:37	380625	N
17:37	380802	V
17:39	381244	N
17:39	381422	V
17:39	381587	V
17:41	382055	N
17:41	382155	+
17:41	382255	V
17:43	382722	N
17:43	382901	V
17:44	383325	N
17:45	383507	V
17:46	383962	N
17:47	384153	V
17:48	384651	N
17:48	384834	V
17:50	385283	N
17:50	385466	V
17:52	385927	N
17:52	386109	V
17:53	386609	N
17:54	386797	V
17:55	387278	N
17:56	387456	V
17:57	387908	N
17:58	388105	V
17:59	388592	N
17:59	388792	V
18:00	389022	+
18:01	389252	N
18:02	389598	N
18:03	389919	N
18:03	390108	V
18:04	390289	V
18:05	390780	N
18:06	390977	V
18:07	391457	N
18:07	391653	V
18:08	391821	V
18:09	392256	N
18:10	392450	V
18:11	392911	N
18:11	393111	V
18:13	393573	N
18:13	393747	~
18:14	393902	N
18:14	394083	V
18:15	394525	N
18:16	394868	N
18:17	395075	V
18:17	395262	V
18:19	395715	N
18:19	395813	+
18:19	395911	V
18:20	396343	N
18:21	396528	V
18:22	396977	N
18:23	397172	V
18:23	397410	+
18:24	397648	N
18:25	397996	N
18:26	398180	V
18:26	398358	V
18:27	398815	N
18:28	399000	V
18:29	399493	N
18:30	399869	N
18:31	400210	N
18:32	400565	N
18:33	400759	V
18:34	401234	N
18:35	401621	N
18:36	401980	N
18:37	402358	N
18:38	402552	V
18:39	403003	N
18:40	403354	N
18:41	403563	V
18:41	403755	V
18:42	404238	N
18:43	404338	+
18:43	404438	V
18:44	404874	N
18:45	405059	V
18:46	405507	N
18:47	405730	V
18:47	405963	+
18:48	406196	N
18:49	406537	N
18:49	406733	V
18:50	406911	V
18:51	407349	N
18:52	407531	V
18:53	407994	N
18:54	408326	N
18:54	408524	V
18:55	408707	V
18:56	409137	N
18:56	409223	+
18:56	409310	V
18:58	409759	N
18:58	409952	V
19:00	410410	N
19:00	410603	V
19:01	411048	N
19:02	411228	V
19:03	411647	N
19:03	411830	V
19:04	412042	~
19:05	412275	N
19:05	412468	V
19:07	412937	N
19:07	413117	V
19:08	413545	N
19:09	413724	V
19:10	414181	N
19:11	414375	V
19:12	414854	N
19:12	415043	V
19:14	415490	N
19:14	415669	V
19:15	416125	N
19:16	416321	V
19:17	416783	N
19:18	416978	V
19:19	417433	N
19:20	417616	V
19:21	418055	N
19:21	418235	V
19:23	418700	N
19:23	418900	V
19:24	419368	N
19:25	419551	V
19:26	419996	N
19:27	420172	V
19:28	420622	N
19:28	420819	V
19:30	421291	N
19:30	421475	V
19:32	421926	N
19:32	422109	V
19:33	422540	N
19:34	422720	V
19:35	423197	N
19:36	423385	V
19:37	423846	N
19:37	424031	V
19:39	424473	N
19:39	424653	V
19:40	425135	N
19:41	425330	V
19:42	425800	N
19:43	425984	V
19:44	426415	N
19:44	426598	V
19:46	427040	N
19:46	427235	V
19:47	427458	+
19:48	427682	N
19:48	428029	N
19:49	428376	N
19:50	428567	V
19:51	428996	N
19:52	429334	N
19:53	429690	N
19:54	430034	N
19:55	430234	V
19:56	430676	N
19:57	431023	N
19:58	431370	N
19:59	431729	N
20:00	432092	N
20:01	432449	N
20:02	432794	N
20:03	433157	N
20:03	433354	V
20:05	433827	N
20:06	434228	N
20:07	434601	N
20:08	434967	N
20:09	435333	N
20:09	435527	V
20:11	436007	N
20:12	436394	N
20:12	436598	V
20:14	437054	N
20:15	437425	N
20:15	437521	+
20:15	437617	V
20:16	438091	N
20:17	438296	V
20:18	438754	N
20:19	438974	V
20:20	439408	N
20:21	439596	V
20:21	439780	V
20:22	440248	N
20:23	440447	V
20:24	440928	N
20:25	441116	V
20:26	441568	N
20:27	441749	V
20:28	442204	N
20:28	442402	V
20:30	442881	N
20:30	443072	V
20:32	443535	N
20:32	443716	V
20:33	444163	N
20:34	444354	V
20:34	444588	+
20:35	444823	N
20:36	445186	N
20:36	445286	+
20:37	445386	V
20:38	445817	N
20:38	446000	V
20:40	446447	N
20:40	446651	V
20:41	447085	N
20:42	447286	V
20:43	447679	N
20:44	447867	V
20:44	448080	+
20:45	448294	N
20:46	448625	N
20:46	448724	+
20:46	448824	V
20:48	449288	N
20:48	449497	V
20:49	449961	N
20:50	450140	V
20:51	450571	N
20:52	450762	V
20:52	450997	+
20:53	451233	N
20:54	451593	N
20:54	451792	V
20:56	452236	N
20:57	452585	N
20:57	452681	+
20:57	452777	V
20:59	453263	N
20:59	453460	V
21:00	453954	N
21:01	454149	V
21:02	454605	N
21:03	454794	V
21:04	455269	N
21:05	455470	V
21:06	455958	N
21:07	456156	V
21:08	456607	N
21:08	456789	V
21:10	457256	N
21:10	457462	V
21:12	457939	N
21:12	458137	V
21:13	458600	N
21:14	458785	V
21:15	459001	+
21:15	459217	N
21:16	459543	N
21:17	459895	N
21:18	460098	V
21:19	460583	N
21:20	460935	N
21:21	461270	N
21:22	461646	N
21:23	462055	N
21:24	462436	N
21:25	462826	N
21:26	463210	N
21:27	463594	N
21:28	463964	N
21:29	464358	N
21:30	464753	N
21:32	465135	N
21:33	465504	N
21:34	465879	N
21:35	466295	N
21:36	466701	N
21:37	467086	N
21:38	467452	N
21:39	467844	N
21:40	468248	N
21:41	468625	N
21:42	469011	N
21:43	469379	N
21:44	469758	N
21:45	470139	N
21:47	470523	N
21:48	470923	N
21:49	471280	N
21:50	471630	N
21:51	472017	N
21:52	472405	N
21:53	472777	N
21:54	473161	N
21:55	473528	N
21:56	473893	N
21:57	474239	N
21:58	474595	N
21:59	474987	N
22:00	475404	N
22:01	475811	N
22:02	476210	N
22:03	476609	N
22:05	477011	N
22:06	477417	N
22:07	477810	N
22:08	478186	N
22:09	478548	N
22:10	478946	N
22:11	479350	N
22:12	479741	N
22:13	480157	N
22:14	480525	N
22:15	480891	N
22:16	481278	N
22:18	481684	N
22:19	482100	N
22:20	482465	N
22:21	482856	N
22:22	483247	N
22:23	483657	N
22:24	484024	N
22:25	484387	N
22:26	484754	N
22:27	485114	N
22:28	485451	N
22:29	485814	N
22:30	486203	N
22:31	486575	N
22:32	486920	N
22:33	487281	N
22:34	487632	N
22:35	488036	N
22:36	488404	N
22:37	488777	N
22:38	489159	N
22:39	489515	N
22:40	489903	N
22:41	490297	N
22:42	490658	N
22:43	491007	N
22:44	491365	N
22:45	491725	N
22:46	492105	N
22:48	492498	N
22:49	492881	N
22:50	493242	N
22:51	493581	N
22:52	493930	N
22:53	494290	N
22:54	494664	N
22:55	495055	N
22:56	495412	N
22:57	495772	N
22:58	496151	N
22:59	496537	N
23:00	496929	N
23:01	497312	N
23:02	497671	N
23:03	498015	N
23:04	498354	N
23:05	498710	N
23:06	499063	N
23:07	499430	N
23:08	499793	N
23:09	500132	N
23:10	500498	N
23:11	500893	N
23:12	501269	N
23:13	501647	N
23:14	502007	N
23:15	502351	N
23:16	502721	N
23:17	503121	N
23:18	503523	N
23:19	503919	N
23:20	504293	N
23:21	504701	N
23:23	505109	N
23:24	505518	N
23:25	505915	N
23:26	506283	N
23:27	506658	N
23:28	507039	N
23:29	507438	N
23:30	507860	N
23:31	508242	N
23:32	508633	N
23:33	509017	N
23:35	509414	N
23:36	509828	N
23:37	510218	N
23:38	510603	N
23:39	510953	N
23:40	511348	N
23:41	511563	~
23:41	511749	N
23:42	512125	N
23:43	512474	N
23:44	512787	N
23:45	513098	N
23:46	513402	N
23:47	513721	N
23:47	514036	N
23:48	514337	N
23:49	514636	N
23:50	514928	N
23:51	515230	N
23:52	515532	N
23:52	515843	N
23:53	516145	N
23:54	516453	N
23:55	516779	N
23:56	516966	V
23:57	517393	N
23:58	517707	N
23:58	517903	V
23:59	518363	N
24:00	518712	N
24:01	518806	+
24:01	518900	V
24:02	519327	N
24:03	519526	V
24:04	519948	N
24:04	520159	V
24:06	520592	N
24:06	520784	V
24:07	520961	V
24:08	521410	N
24:08	521581	V
24:10	522038	N
24:10	522222	V
24:11	522692	N
24:12	522886	V
24:13	523339	N
24:14	523512	V
24:15	523932	N
24:15	524111	V
24:17	524593	N
24:17	524792	V
24:19	525253	N
24:19	525436	V
24:20	525885	N
24:21	526060	V
24:22	526517	N
24:23	526709	V
24:24	527179	N
24:24	527372	V
24:26	527798	N
24:26	527974	V
24:27	528381	N
24:28	528564	V
24:29	529019	N
24:30	529210	V
24:31	529671	N
24:31	529847	V
24:33	530284	N
24:33	530461	V
24:34	530923	N
24:35	531116	V
24:36	531590	N
24:37	531779	V
24:38	532223	N
24:38	532398	V
24:40	532810	N
24:40	532997	V
24:41	533447	N
24:42	533637	V
24:43	534071	N
24:44	534246	V
24:45	534634	N
24:45	534815	V
24:46	535257	N
24:47	535442	V
24:48	535903	N
24:49	536087	V
24:50	536518	N
24:50	536698	V
24:52	537159	N
24:52	537357	V
24:53	537823	N
24:54	538016	V
24:55	538457	N
24:56	538638	V
24:57	539065	N
24:57	539257	V
24:58	539480	+
24:59	539703	N
25:00	540036	N
25:00	540229	V
25:01	540420	V
25:02	540870	N
25:02	541055	V
25:04	541489	N
25:05	541810	N
25:05	542006	V
25:06	542194	V
25:07	542661	N
25:07	542748	+
25:07	542836	V
25:09	543274	N
25:09	543449	V
25:10	543906	N
25:11	544110	V
25:12	544571	N
25:13	544770	V
25:14	545195	N
25:14	545374	V
25:16	545788	N
25:16	545986	V
25:17	546165	V
25:18	546631	N
25:18	546813	V
25:20	547268	N
25:20	547444	V
25:21	547863	N
25:22	548044	V
25:23	548506	N
25:24	548697	V
25:25	549133	N
25:25	549313	V
25:27	549737	N
25:27	549915	V
25:28	550357	N
25:29	550551	V
25:30	550993	N
25:31	551181	V
25:32	551597	N
25:32	551774	V
25:33	552196	N
25:34	552382	V
25:35	552839	N
25:36	553033	V
25:37	553492	N
25:37	553677	V
25:39	554115	N
25:39	554299	V
25:40	554758	N
25:41	554954	V
25:42	555425	N
25:43	555613	V
25:44	556035	N
25:45	556218	V
25:46	556678	N
25:46	556879	V
25:48	557337	N
25:48	557527	V
25:49	557973	N
25:50	558173	V
25:51	558593	N
25:52	558775	V
25:53	559248	N
25:54	559451	V
25:55	559923	N
25:55	560105	V
25:56	560287	V
25:57	560730	N
25:58	560919	V
25:58	561138	~
25:59	561382	N
25:59	561582	V
26:00	561759	V
26:01	562230	N
26:02	562410	V
26:03	562879	N
26:04	563065	V
26:04	563243	V
26:05	563501	+
26:05	563759	N
26:07	564145	N
26:08	564497	N
26:08	564687	V
26:09	564853	V
26:10	565339	N
26:11	565756	N
26:12	565959	V
26:12	566139	V
26:13	566620	N
26:14	566798	V
26:14	566969	V
26:16	567457	N
26:17	567850	N
26:18	568197	N
26:19	568562	N
26:19	568757	V
26:20	568930	V
26:21	569392	N
26:22	569787	N
26:23	570197	N
26:24	570594	N
26:26	570977	N
26:27	571390	N
26:28	571770	N
26:29	572127	N
26:30	572496	N
26:31	572898	N
26:32	573260	N
26:33	573649	N
26:34	574070	N
26:35	574479	N
26:36	574893	N
26:38	575311	N
26:39	575737	N
26:40	576185	N
26:41	576618	N
26:42	577058	N
26:44	577458	N
26:45	577858	N
26:46	578240	N
26:47	578656	N
26:48	579103	N
26:49	579528	N
26:50	579685	~
26:50	579873	N
26:51	580227	N
26:52	580604	N
26:53	580952	N
26:54	581292	N
26:55	581505	V
26:55	581686	V
26:57	582134	N
26:58	582480	N
26:58	582836	N
26:59	583183	N
27:00	583391	V
27:01	583578	V
27:02	584064	N
27:03	584460	N
27:04	584865	N
27:05	585074	V
27:05	585266	V
27:07	585778	N
27:08	586184	N
27:08	586376	V
27:09	586550	V
27:10	587071	N
27:11	587510	N
27:12	587713	V
27:13	587897	V
27:14	588394	N
27:15	588831	N
27:16	589023	V
27:16	589216	V
27:18	589757	N
27:18	589948	V
27:19	590128	V
27:20	590618	N
27:21	591021	N
27:22	591216	V
27:22	591396	V
27:24	591926	N
27:25	592352	N
27:25	592541	V
27:26	592712	V
27:27	593213	N
27:29	593646	N
27:29	593850	V
27:30	594033	V
27:31	594550	N
27:32	594966	N
27:33	595155	V
27:33	595323	V
27:35	595846	N
27:36	596305	N
27:36	596500	V
27:37	596681	V
27:38	597174	N
27:39	597364	V
27:39	597537	V
27:41	598061	N
27:42	598523	N
27:43	598719	V
27:43	598900	V
27:44	599388	N
27:45	599565	V
27:45	599737	V
27:47	600277	N
27:48	600707	N
27:49	600906	V
27:49	601078	V
27:51	601572	N
27:52	601984	N
27:52	602185	V
27:53	602372	V
27:54	602902	N
27:55	603298	N
27:56	603487	V
27:56	603658	V
27:58	604146	N
27:59	604570	N
27:59	604773	V
28:00	604958	V
28:01	605452	N
28:02	605834	N
28:03	606024	V
28:03	606203	V
28:05	606699	N
28:06	607133	N
28:07	607330	V
28:07	607521	V
28:08	607993	N
28:09	608179	V
28:09	608353	V
28:11	608853	N
28:11	609042	V
28:12	609229	V
28:13	609708	N
28:14	609895	V
28:15	610319	N
28:15	610510	V
28:16	610682	V
28:17	610990	~
28:17	611163	N
28:18	611355	V
28:18	611528	V
28:19	611988	N
28:20	612166	V
28:21	612630	N
28:22	612822	V
28:22	613029	V
28:24	613516	N
28:24	613610	+
28:24	613704	V
28:26	614170	N
28:26	614511	N
28:27	614694	V
28:28	615159	N
28:29	615527	N
28:30	615730	V
28:31	616211	N
28:32	616564	N
28:33	616750	V
28:33	616931	V
28:35	617447	N
28:36	617876	N
28:36	618074	V
28:37	618317	+
28:38	618560	N
28:38	618757	V
28:39	618940	V
28:40	619451	N
28:41	619877	N
28:42	620082	V
28:42	620275	V
28:44	620775	N
28:45	621146	N
28:45	621340	V
28:46	621523	V
28:47	622062	N
28:49	622475	N
28:50	622845	N
28:50	623040	V
28:51	623224	V
28:52	623724	N
28:53	624132	N
28:54	624339	V
28:54	624521	V
28:56	625017	N
28:57	625370	N
28:57	625559	V
28:58	626017	N
28:59	626238	V
29:00	626675	N
29:01	626983	N
29:02	627318	N
29:03	627629	N
29:03	627831	V
29:04	628008	V
29:05	628493	N
29:06	628697	V
29:07	629117	N
29:08	629405	N
29:09	629680	N
29:09	629971	N
29:10	630258	N
29:11	630568	N
29:12	630774	V
29:12	630950	V
29:13	631401	N
29:14	631585	V
29:15	631982	N
29:16	632305	N
29:16	632449	~
29:16	632510	V
29:17	632695	V
29:18	633131	N
29:19	633326	V
29:20	633703	N
29:20	633883	V
29:21	634048	V
29:22	634470	N
29:22	634565	+
29:22	634660	V
29:24	635076	N
29:24	635269	V
29:25	635655	N
29:26	635836	V
29:27	636227	N
29:27	636406	V
29:29	636840	N
29:29	637038	V
29:30	637473	N
29:31	637662	V
29:32	638078	N
29:32	638257	V
29:34	638661	N
29:34	638856	V
29:35	639301	N
29:36	639491	V
29:37	639899	N
29:38	640085	V
29:38	640262	V
29:39	640692	N
29:40	640877	V
29:40	641092	+
29:41	641308	N
29:42	641617	N
29:42	641807	V
29:43	641989	V
29:44	642400	N
29:44	642486	+
29:44	642572	V
29:46	642969	N
29:46	643157	V
29:47	643560	N
29:48	643761	V
29:48	643950	+
29:49	644140	N
29:50	644413	N
29:50	644600	V
29:51	644768	V
29:52	645187	N
29:52	645388	V
29:53	645801	N
29:54	645996	V
29:54	646177	V
29:55	646407	~
29:56	646616	N
29:56	646915	N
29:57	647223	N
29:58	647570	N
29:59	647778	V
30:00	648265	N
30:01	648622	N
30:02	648968	N
30:03	649162	V
30:03	649340	V
30:04	649791	N
