0:00	111	L
0:00	343	L
0:01	571	L
0:02	807	L
0:02	1048	L
0:03	1287	L
0:04	1523	L
0:04	1765	L
0:05	1994	L
0:06	2219	L
0:06	2435	L
0:07	2661	L
0:08	2883	L
0:08	3116	L
0:09	3352	L
0:09	3586	L
0:10	3813	L
0:11	4041	L
0:11	4264	L
0:12	4480	L
0:13	4690	L
0:13	4908	L
0:14	5128	L
0:14	5358	L
0:15	5592	L
0:16	5820	L
0:16	6047	L
0:17	6259	F
0:18	6482	L
0:18	6696	L
0:19	6918	L
0:19	7134	L
0:20	7357	L
0:21	7584	L
0:21	7824	L
0:22	8067	L
0:23	8292	L
0:23	8512	L
0:24	8737	L
0:24	8971	L
0:25	9197	L
0:26	9423	L
0:26	9660	L
0:27	9902	L
0:28	10148	L
0:28	10391	L
0:29	10620	L
0:30	10845	L
0:30	11075	L
0:31	11310	F
0:32	11549	L
0:32	11784	L
0:33	12030	L
0:34	12277	L
0:34	12523	L
0:35	12765	L
0:36	12997	L
0:36	13228	L
0:37	13464	L
0:38	13716	L
0:38	13924	V
0:39	14212	L
0:40	14463	L
0:40	14714	L
0:41	14958	L
0:42	15201	L
0:42	15437	L
0:43	15669	L
0:44	15918	L
0:44	16181	L
0:45	16437	L
0:46	16686	L
0:47	16936	L
0:47	17178	L
0:48	17424	L
0:49	17663	L
0:49	17903	L
0:50	18154	L
0:51	18422	L
0:51	18679	L
0:52	18929	L
0:53	19176	L
0:53	19415	L
0:54	19660	L
0:55	19907	L
0:55	20151	L
0:56	20400	L
0:57	20668	L
0:58	20929	L
0:58	21180	L
0:59	21425	L
1:00	21668	L
1:00	21910	L
1:01	22160	L
1:02	22408	L
1:02	22661	L
1:03	22922	L
1:04	23189	L
1:05	23439	L
1:05	23677	L
1:06	23918	L
1:07	24158	L
1:07	24408	L
1:08	24664	L
1:09	24923	L
1:09	25180	L
1:10	25448	L
1:11	25699	L
1:12	25938	L
1:12	26178	L
1:13	26422	L
1:14	26679	L
1:14	26940	L
1:15	27200	L
1:16	27455	L
1:16	27656	V
1:17	27965	L
1:18	28204	L
1:19	28452	L
1:19	28699	L
1:20	28960	L
1:21	29230	L
1:21	29490	L
1:22	29743	L
1:23	30004	L
1:24	30255	L
1:24	30499	L
1:25	30743	L
1:26	30997	L
1:26	31259	L
1:27	31532	L
1:28	31792	L
1:29	32042	L
1:29	32295	L
1:30	32551	L
1:31	32799	L
1:31	33042	L
1:32	33243	V
1:33	33561	L
1:33	33826	L
1:34	34088	L
1:35	34335	L
1:36	34580	L
1:36	34837	L
1:37	35086	L
1:38	35332	L
1:38	35591	L
1:39	35853	L
1:40	36119	L
1:41	36378	L
1:41	36627	L
1:42	36874	L
1:43	37131	L
1:43	37383	L
1:44	37639	L
1:45	37902	L
1:46	38165	L
1:46	38431	L
1:47	38691	L
1:48	38937	L
1:48	39178	L
1:49	39434	L
1:50	39691	L
1:50	39952	L
1:51	40212	L
1:52	40473	L
1:53	40729	L
1:53	40984	L
1:54	41228	L
1:55	41470	L
1:55	41721	L
1:56	41989	L
1:57	42251	L
1:58	42504	L
1:58	42764	L
1:59	43012	L
2:00	43264	L
2:00	43512	L
2:01	43760	L
2:02	44010	L
2:03	44283	L
2:03	44547	L
2:04	44800	L
2:05	45054	L
2:05	45302	L
2:06	45549	L
2:07	45777	V
2:07	46046	L
2:08	46292	L
2:09	46556	L
2:10	46820	L
2:10	47076	L
2:11	47316	L
2:12	47558	L
2:12	47796	L
2:13	48044	L
2:14	48291	L
2:14	48546	L
2:15	48805	L
2:16	49073	L
2:17	49328	L
2:17	49567	L
2:18	49809	L
2:19	50049	L
2:19	50300	L
2:20	50558	L
2:21	50810	L
2:21	51062	L
2:22	51329	L
2:23	51580	L
2:23	51821	L
2:24	52059	L
2:25	52302	L
2:25	52550	L
2:26	52812	L
2:27	53068	L
2:28	53319	L
2:28	53578	L
2:29	53833	L
2:30	54073	L
2:30	54307	L
2:31	54550	L
2:32	54793	L
2:32	55049	L
2:33	55306	L
2:34	55560	L
2:35	55805	L
2:35	56057	L
2:36	56297	L
2:37	56532	L
2:37	56773	L
2:38	57021	L
2:39	57283	L
2:39	57550	L
2:40	57803	L
2:41	58049	L
2:41	58299	L
2:42	58547	L
2:43	58793	L
2:43	59037	L
2:44	59295	L
2:45	59561	L
2:46	59829	L
2:46	60083	L
2:47	60329	L
2:48	60581	L
2:48	60833	L
2:49	61081	L
2:50	61333	L
2:51	61597	L
2:51	61859	L
2:52	62126	L
2:53	62378	L
2:53	62620	L
2:54	62865	L
2:55	63120	L
2:56	63370	L
2:56	63620	L
2:57	63879	L
2:58	64131	L
2:58	64389	L
2:59	64636	L
3:00	64875	L
3:00	65108	L
3:01	65357	L
3:02	65609	L
3:02	65862	L
3:03	66112	L
3:04	66370	L
3:05	66626	L
3:05	66878	L
3:06	67118	L
3:07	67355	L
3:07	67609	L
3:08	67871	L
3:09	68133	L
3:09	68388	L
3:10	68646	L
3:11	68895	L
3:12	69145	L
3:12	69386	L
3:13	69629	L
3:14	69881	L
3:14	70148	L
3:15	70409	L
3:16	70662	L
3:16	70916	L
3:17	71160	L
3:18	71406	L
3:19	71656	L
3:19	71902	L
3:20	72150	L
3:21	72417	L
3:21	72681	L
3:22	72937	L
3:23	73185	L
3:23	73432	L
3:24	73676	L
3:25	73929	L
3:26	74180	L
3:26	74432	L
3:27	74697	L
3:28	74970	L
3:28	75226	L
3:29	75466	L
3:30	75712	L
3:30	75954	L
3:31	76206	L
3:32	76463	L
3:33	76726	L
3:33	76984	L
3:34	77256	L
3:35	77511	L
3:35	77754	L
3:36	77999	L
3:37	78248	L
3:38	78506	L
3:38	78771	L
3:39	79032	L
3:40	79288	L
3:40	79550	L
3:41	79803	L
3:42	80049	L
3:43	80290	L
3:43	80539	L
3:44	80797	L
3:45	81065	L
3:45	81324	L
3:46	81578	L
3:47	81835	L
3:48	82089	L
3:48	82335	L
3:49	82576	L
3:50	82829	L
3:50	83085	L
3:51	83354	L
3:52	83616	L
3:52	83868	L
3:53	84119	L
3:54	84378	L
3:55	84622	L
3:55	84823	V
3:56	85114	L
3:57	85367	L
3:57	85636	L
3:58	85895	L
3:59	86143	L
3:59	86380	L
4:00	86628	L
4:01	86866	L
4:01	87103	L
4:02	87344	L
4:03	87592	L
4:04	87841	L
4:04	88085	L
4:05	88320	L
4:05	88550	L
4:06	88776	L
4:07	89020	L
4:07	89255	L
4:08	89490	L
4:09	89732	L
4:09	89980	L
4:10	90230	L
4:11	90478	L
4:11	90707	L
4:12	90935	L
4:13	91175	L
4:13	91424	L
4:14	91673	L
4:15	91919	L
4:16	92173	L
4:16	92424	L
4:17	92676	L
4:18	92920	L
4:18	93159	L
4:19	93405	L
4:20	93671	L
4:20	93933	L
4:21	94190	L
4:22	94455	L
4:23	94712	L
4:23	94970	L
4:24	95223	L
4:25	95474	L
4:25	95726	L
4:26	96004	L
4:27	96276	L
4:28	96540	L
4:28	96805	L
4:29	97062	L
4:30	97320	L
4:31	97575	L
4:31	97831	L
4:32	98091	L
4:33	98372	L
4:34	98645	L
4:34	98902	L
4:35	99157	L
4:36	99407	L
4:36	99665	L
4:37	99919	L
4:38	100176	L
4:39	100441	L
4:39	100722	L
4:40	100983	L
4:41	101234	L
4:41	101483	L
4:42	101727	L
4:43	101979	L
4:43	102236	L
4:44	102493	L
4:45	102752	L
4:46	103024	L
4:46	103284	L
4:47	103531	L
4:48	103779	L
4:48	104027	L
4:49	104282	L
4:50	104538	V
4:51	104817	L
4:51	105076	L
4:52	105346	L
4:53	105606	L
4:54	105854	L
4:54	106097	L
4:55	106349	L
4:56	106605	L
4:56	106872	L
4:57	107137	L
4:58	107396	L
4:59	107657	L
4:59	107920	L
5:00	108170	L
5:01	108413	L
5:01	108669	L
5:02	108932	L
5:03	109204	L
5:04	109471	L
5:04	109733	L
5:05	109990	L
5:06	110249	L
5:06	110499	L
5:07	110744	L
5:08	111002	L
5:09	111264	L
5:09	111537	L
5:10	111802	L
5:11	112058	L
5:11	112308	L
5:12	112571	L
5:13	112822	L
5:14	113075	L
5:14	113340	L
5:15	113606	L
5:16	113882	L
5:17	114147	L
5:17	114398	L
5:18	114643	L
5:19	114906	L
5:19	115161	L
5:20	115415	L
5:21	115684	L
5:22	115948	L
5:22	116217	L
5:23	116479	L
5:24	116730	L
5:24	116974	L
5:25	117241	L
5:26	117501	L
5:27	117761	L
5:27	118027	L
5:28	118288	L
5:29	118544	L
5:29	118796	L
5:30	119037	L
5:31	119274	L
5:32	119531	L
5:32	119787	L
5:33	120043	L
5:34	120291	L
5:34	120536	L
5:35	120780	L
5:36	121016	L
5:36	121243	L
5:37	121470	L
5:38	121700	L
5:38	121954	L
5:39	122191	L
5:40	122430	L
5:40	122662	L
5:41	122891	L
5:41	123119	L
5:42	123354	L
5:43	123576	L
5:43	123801	L
5:44	124037	L
5:45	124289	L
5:45	124527	L
5:46	124758	L
5:47	124992	L
5:47	125221	L
5:48	125452	L
5:49	125687	L
5:49	125917	L
5:50	126151	L
5:51	126397	L
5:51	126651	L
5:52	126892	L
5:53	127121	L
5:53	127352	L
5:54	127580	L
5:55	127816	L
5:55	128056	L
5:56	128296	L
5:57	128538	L
5:57	128793	L
5:58	129048	L
5:59	129294	L
5:59	129525	L
6:00	129760	L
6:01	129994	L
6:01	130240	L
6:02	130488	L
6:03	130741	L
6:03	130993	L
6:04	131256	L
6:05	131506	L
6:05	131744	L
6:06	131981	L
6:07	132222	L
6:07	132476	L
6:08	132741	L
6:09	132996	L
6:10	133250	L
6:10	133515	L
6:11	133773	L
6:12	134018	L
6:12	134258	L
6:13	134509	L
6:14	134764	L
6:15	135034	L
6:15	135297	L
6:16	135553	L
6:17	135813	L
6:17	136072	L
6:18	136320	L
6:19	136563	L
6:20	136816	L
6:20	137075	L
6:21	137345	L
6:22	137610	L
6:22	137869	L
6:23	138115	L
6:24	138373	L
6:25	138619	L
6:25	138861	L
6:26	139114	L
6:27	139374	L
6:27	139644	L
6:28	139912	L
6:29	140166	L
6:30	140407	L
6:30	140659	L
6:31	140909	L
6:32	141162	L
6:32	141414	L
6:33	141678	L
6:34	141943	L
6:35	142204	L
6:35	142448	L
6:36	142689	L
6:37	142936	L
6:37	143190	L
6:38	143442	L
6:39	143696	L
6:39	143957	L
6:40	144210	L
6:41	144467	L
6:41	144712	L
6:42	144953	L
6:43	145195	L
6:44	145456	L
6:44	145712	L
6:45	145970	L
6:46	146230	L
6:46	146487	L
6:47	146742	L
6:48	146996	L
6:49	147243	L
6:49	147484	L
6:50	147751	L
6:51	148021	L
6:51	148283	L
6:52	148538	L
6:53	148793	L
6:54	149045	L
6:54	149298	L
6:55	149541	L
6:56	149787	L
6:56	150053	L
6:57	150325	L
6:58	150588	L
6:58	150837	L
6:59	151089	L
7:00	151337	L
7:01	151588	L
7:01	151835	L
7:02	152086	L
7:03	152353	L
7:03	152624	L
7:04	152885	L
7:05	153073	V
7:06	153378	L
7:06	153620	L
7:07	153876	L
7:08	154125	L
7:08	154320	V
7:09	154645	L
7:10	154916	L
7:11	155173	L
7:11	155416	L
7:12	155658	L
7:13	155897	L
7:13	156145	L
7:14	156400	L
7:15	156654	L
7:15	156905	L
7:16	157169	L
7:17	157415	L
7:17	157652	L
7:18	157890	L
7:19	158132	L
7:19	158383	L
7:20	158645	L
7:21	158907	L
7:22	159161	L
7:22	159426	L
7:23	159680	L
7:24	159922	L
7:24	160162	L
7:25	160411	L
7:26	160669	L
7:27	160938	L
7:27	161197	L
7:28	161453	L
7:29	161715	L
7:29	161968	L
7:30	162216	L
7:31	162457	L
7:31	162710	L
7:32	162969	L
7:33	163241	L
7:34	163502	L
7:34	163754	L
7:35	164009	L
7:36	164266	L
7:36	164516	L
7:37	164761	L
7:38	165020	L
7:39	165283	L
7:39	165554	L
7:40	165816	L
7:41	166067	L
7:41	166318	L
7:42	166576	L
7:43	166826	L
7:44	167072	L
7:44	167334	L
7:45	167597	L
7:46	167867	L
7:47	168129	L
7:47	168380	L
7:48	168627	L
7:49	168890	L
7:49	169145	L
7:50	169401	L
7:51	169670	L
7:52	169935	L
7:52	170205	L
7:53	170463	L
7:54	170716	L
7:54	170963	L
7:55	171224	L
7:56	171483	L
7:57	171744	L
7:57	172008	L
7:58	172269	L
7:59	172533	L
7:59	172790	L
8:00	173036	L
8:01	173277	L
8:02	173538	L
8:02	173801	L
8:03	174063	L
8:04	174318	L
8:04	174577	L
8:05	174827	L
8:06	175075	L
8:06	175314	L
8:07	175554	L
8:08	175812	L
8:09	176053	V
8:09	176340	L
8:10	176589	L
8:11	176845	L
8:11	177087	L
8:12	177336	L
8:13	177584	L
8:13	177830	L
8:14	178083	L
8:15	178355	L
8:16	178614	L
8:16	178862	L
8:17	179104	L
8:18	179345	L
8:18	179591	L
8:19	179842	L
8:20	180088	L
8:20	180336	L
8:21	180600	L
8:22	180868	L
8:23	181124	L
8:23	181362	L
8:24	181609	L
8:25	181857	L
8:25	182114	L
8:26	182370	L
8:27	182630	L
8:28	182903	L
8:28	183174	L
8:29	183431	L
8:30	183625	V
8:30	183929	L
8:31	184183	L
8:32	184458	L
8:33	184723	L
8:33	184987	L
8:34	185262	L
8:35	185529	L
8:36	185780	L
8:36	186028	L
8:37	186282	L
8:38	186539	L
8:38	186812	L
8:39	187078	L
8:40	187339	L
8:41	187607	L
8:41	187865	L
8:42	188115	L
8:43	188362	L
8:43	188618	L
8:44	188885	L
8:45	189164	L
8:46	189427	L
8:46	189684	L
8:47	189945	L
8:48	190198	L
8:48	190399	V
8:49	190692	L
8:50	190951	L
8:51	191227	L
8:51	191500	L
8:52	191760	L
8:53	192010	L
8:54	192270	L
8:54	192520	L
8:55	192767	L
8:56	193018	L
8:56	193280	L
8:57	193549	L
8:58	193819	L
8:59	194071	L
8:59	194311	L
9:00	194565	L
9:01	194815	L
9:01	195063	L
9:02	195318	L
9:03	195583	L
9:04	195849	L
9:04	196117	L
9:05	196368	L
9:06	196608	L
9:06	196858	L
9:07	197115	L
9:08	197372	L
9:08	197625	L
9:09	197891	L
9:10	198154	L
9:11	198417	L
9:11	198665	L
9:12	198909	L
9:13	199164	L
9:13	199430	L
9:14	199697	L
9:15	199961	L
9:16	200231	L
9:16	200498	L
9:17	200760	L
9:18	201008	L
9:19	201258	L
9:19	201518	L
9:20	201788	L
9:21	202057	L
9:22	202321	L
9:22	202589	L
9:23	202846	L
9:24	203108	L
9:24	203359	L
9:25	203612	L
9:26	203878	L
9:27	204157	L
9:27	204429	L
9:28	204695	L
9:29	204959	L
9:30	205213	L
9:30	205475	L
9:31	205731	L
9:32	205987	L
9:32	206260	L
9:33	206543	L
9:34	206813	L
9:35	207070	L
9:35	207330	L
9:36	207584	L
9:37	207843	L
9:38	208101	L
9:38	208364	L
9:39	208637	L
9:40	208914	L
9:41	209177	L
9:41	209424	L
9:42	209676	L
9:43	209925	L
9:43	210182	L
9:44	210440	L
9:45	210703	L
9:46	210971	L
9:46	211240	L
9:47	211497	L
9:48	211742	L
9:48	211989	L
9:49	212237	L
9:50	212501	L
9:51	212767	L
9:51	213029	L
9:52	213291	L
9:53	213561	L
9:53	213813	L
9:54	214056	L
9:55	214307	L
9:56	214560	L
9:56	214832	L
9:57	215102	L
9:58	215364	L
9:58	215628	L
9:59	215898	L
10:00	216148	L
10:01	216394	L
10:01	216588	V
10:02	216910	L
10:03	217182	L
10:04	217454	L
10:04	217715	L
10:05	217973	L
10:06	218236	L
10:06	218488	L
10:07	218734	L
10:08	218995	L
10:09	219262	L
10:09	219535	L
10:10	219757	V
10:11	220055	L
10:11	220309	L
10:12	220573	L
10:13	220825	L
10:14	221078	L
10:14	221341	L
10:15	221609	L
10:16	221881	L
10:17	222140	L
10:17	222387	L
10:18	222640	L
10:19	222899	L
10:19	223153	L
10:20	223408	L
10:21	223676	L
10:22	223941	L
10:22	224213	L
10:23	224467	L
10:24	224712	L
10:24	224968	L
10:25	225228	L
10:26	225490	L
10:27	225751	L
10:27	226023	L
10:28	226290	L
10:29	226556	L
10:30	226806	L
10:30	227051	L
10:31	227308	L
10:32	227572	L
10:32	227839	L
10:33	228102	L
10:34	228371	L
10:35	228637	L
10:35	228897	L
10:36	229145	L
10:37	229393	L
10:37	229656	L
10:38	229926	L
10:39	230196	L
10:40	230457	L
10:40	230720	L
10:41	230981	L
10:42	231241	L
10:43	231487	L
10:43	231733	L
10:44	232004	L
10:45	232276	L
10:45	232540	L
10:46	232801	L
10:47	233057	L
10:48	233309	L
10:48	233565	L
10:49	233810	L
10:50	234057	L
10:50	234325	L
10:51	234598	L
10:52	234817	V
10:53	235114	L
10:53	235368	L
10:54	235619	L
10:55	235873	L
10:55	236129	L
10:56	236388	L
10:57	236658	L
10:58	236935	L
10:58	237202	L
10:59	237453	L
11:00	237706	L
11:00	237957	L
11:01	238216	L
11:02	238480	L
11:03	238745	L
11:03	239015	L
11:04	239291	L
11:05	239552	L
11:06	239798	L
11:06	240048	L
11:07	240300	L
11:08	240566	L
11:08	240832	L
11:09	241100	L
11:10	241369	L
11:11	241639	L
11:11	241892	L
11:12	242139	L
11:13	242393	L
11:14	242647	L
11:14	242921	L
11:15	243190	L
11:16	243455	L
11:17	243720	L
11:17	243987	L
11:18	244239	L
11:19	244486	L
11:19	244746	L
11:20	245007	L
11:21	245285	L
11:21	245497	V
11:22	245821	L
11:23	246078	L
11:24	246347	L
11:25	246602	L
11:25	246851	L
11:26	247116	L
11:27	247385	L
11:27	247661	L
11:28	247925	L
11:29	248180	L
11:30	248436	L
11:30	248697	L
11:31	248953	L
11:32	249205	L
11:32	249473	L
11:33	249742	L
11:34	250015	L
11:35	250274	L
11:35	250523	L
11:36	250783	L
11:37	251042	L
11:38	251302	L
11:38	251565	L
11:39	251836	L
11:40	252111	L
11:41	252382	L
11:41	252633	L
11:42	252877	L
11:43	253136	L
11:43	253394	L
11:44	253656	L
11:45	253918	L
11:46	254185	L
11:46	254451	L
11:47	254717	L
11:48	254968	L
11:48	255210	L
11:49	255470	L
11:50	255734	L
11:51	255998	L
11:51	256259	L
11:52	256525	L
11:53	256788	L
11:54	257046	L
11:54	257296	L
11:55	257544	L
11:56	257811	L
11:56	258079	L
11:57	258345	L
11:58	258610	L
11:59	258872	L
11:59	259133	L
12:00	259388	L
12:01	259638	L
12:01	259890	L
12:02	260164	L
12:03	260434	L
12:04	260699	L
12:04	260963	L
12:05	261216	L
12:06	261472	L
12:07	261727	L
12:07	261978	L
12:08	262234	L
12:09	262510	L
12:09	262779	L
12:10	263034	L
12:11	263291	L
12:12	263540	L
12:12	263795	L
12:13	264053	L
12:14	264308	L
12:14	264571	L
12:15	264853	L
12:16	265122	L
12:17	265377	L
12:17	265629	L
12:18	265879	L
12:19	266135	L
12:19	266394	L
12:20	266657	L
12:21	266924	L
12:22	267202	L
12:22	267466	L
12:23	267717	L
12:24	267966	L
12:25	268216	L
12:25	268477	L
12:26	268745	L
12:27	269013	L
12:27	269275	L
12:28	269549	L
12:29	269803	L
12:30	270050	L
12:30	270296	L
12:31	270544	L
12:32	270806	L
12:33	271082	L
12:33	271346	L
12:34	271603	L
12:35	271869	L
12:35	272122	L
12:36	272369	L
12:37	272611	L
12:37	272866	L
12:38	273127	L
12:39	273399	L
12:40	273662	L
12:40	273913	L
12:41	274172	L
12:42	274427	L
12:42	274674	L
12:43	274921	L
12:44	275180	L
12:45	275442	L
12:45	275710	L
12:46	275971	L
12:47	276224	L
12:47	276472	L
12:48	276727	L
12:49	276977	L
12:50	277225	L
12:50	277488	L
12:51	277754	L
12:52	278027	L
12:53	278288	L
12:53	278541	L
12:54	278792	L
12:55	279055	L
12:55	279313	L
12:56	279570	L
12:57	279840	L
12:58	280108	L
12:58	280381	L
12:59	280638	L
13:00	280885	L
13:00	281142	L
13:01	281405	L
13:02	281667	L
13:03	281930	L
13:03	282201	L
13:04	282465	L
13:05	282731	L
13:06	282983	L
13:06	283229	L
13:07	283489	L
13:08	283756	L
13:08	284024	L
13:09	284287	L
13:10	284558	L
13:11	284819	L
13:11	285077	L
13:12	285326	L
13:13	285572	L
13:13	285832	L
13:14	286102	L
13:15	286371	L
13:16	286632	L
13:16	286896	L
13:17	287154	L
13:18	287411	L
13:19	287660	L
13:19	287909	L
13:20	288177	L
13:21	288451	L
13:21	288719	L
13:22	288979	L
13:23	289235	L
13:24	289490	L
13:24	289748	L
13:25	289999	L
13:26	290249	L
13:27	290525	L
13:27	290795	L
13:28	291056	L
13:29	291317	L
13:29	291569	L
13:30	291824	L
13:31	292083	L
13:32	292340	L
13:32	292598	L
13:33	292876	L
13:34	293145	L
13:35	293402	L
13:35	293656	L
13:36	293906	L
13:37	294162	L
13:37	294421	L
13:38	294683	L
13:39	294946	L
13:40	295223	L
13:40	295490	L
13:41	295742	L
13:42	295989	L
13:42	296240	L
13:43	296499	L
13:44	296764	L
13:45	297027	L
13:45	297292	L
13:46	297570	L
13:47	297829	L
13:47	298077	L
13:48	298327	L
13:49	298579	L
13:50	298842	L
13:50	299112	L
13:51	299379	L
13:52	299643	L
13:53	299916	L
13:53	300169	L
13:54	300414	L
13:55	300663	L
13:55	300916	L
13:56	301179	L
13:57	301454	L
13:58	301721	L
13:58	301976	L
13:59	302239	L
14:00	302491	L
14:00	302739	L
14:01	302989	L
14:02	303249	L
14:03	303521	L
14:03	303797	L
14:04	304062	L
14:05	304315	L
14:05	304544	V
14:06	304828	L
14:07	305081	L
14:08	305338	L
14:08	305607	L
14:09	305882	L
14:10	306154	L
14:11	306417	L
14:11	306667	L
14:12	306926	L
14:13	307182	L
14:14	307441	L
14:14	307704	L
14:15	307976	L
14:16	308249	L
14:17	308521	L
14:17	308774	L
14:18	309021	L
14:19	309279	L
14:19	309537	L
14:20	309800	L
14:21	310068	L
14:22	310336	L
14:22	310604	L
14:23	310868	L
14:24	311116	L
14:24	311362	L
14:25	311620	L
14:26	311885	L
14:27	312150	L
14:27	312411	L
14:28	312678	L
14:29	312935	L
14:29	313193	L
14:30	313439	L
14:31	313683	L
14:32	313946	L
14:32	314217	L
14:33	314483	L
14:34	314745	L
14:35	315007	L
14:35	315265	L
14:36	315520	L
14:37	315769	L
14:37	316019	L
14:38	316291	L
14:39	316560	L
14:40	316828	L
14:40	317091	L
14:41	317348	L
14:42	317605	L
14:42	317865	L
14:43	318119	L
14:44	318376	L
14:45	318655	L
14:45	318926	L
14:46	319189	L
14:47	319449	L
14:48	319698	L
14:48	319955	L
14:49	320215	L
14:50	320471	L
14:50	320733	L
14:51	321013	L
14:52	321279	L
14:53	321532	L
14:53	321783	L
14:54	322032	L
14:55	322287	L
14:55	322546	L
14:56	322806	L
14:57	323069	L
14:58	323346	L
14:58	323608	L
14:59	323854	L
15:00	324102	L
15:00	324348	L
15:01	324606	L
15:02	324863	L
15:03	325127	L
15:03	325390	L
15:04	325663	L
15:05	325921	L
15:06	326168	L
15:06	326418	L
15:07	326665	L
15:08	326927	L
15:08	327194	L
15:09	327459	L
15:10	327720	L
15:11	327989	L
15:11	328241	L
15:12	328483	L
15:13	328729	L
15:13	328976	L
15:14	329240	L
15:15	329510	L
15:16	329771	L
15:16	330027	L
15:17	330238	V
15:18	330544	L
15:18	330783	L
15:19	331035	L
15:20	331289	L
15:20	331553	L
15:21	331822	L
15:22	332084	L
15:23	332333	L
15:23	332588	L
15:24	332834	L
15:25	333079	L
15:25	333325	L
15:26	333583	L
15:27	333849	L
15:28	334119	L
15:28	334379	L
15:29	334628	L
15:30	334878	L
15:30	335129	L
15:31	335379	L
15:32	335577	V
15:33	335894	L
15:33	336155	L
15:34	336427	L
15:35	336679	L
15:35	336925	L
15:36	337174	L
15:37	337432	L
15:38	337684	L
15:38	337937	L
15:39	338204	L
15:40	338466	L
15:40	338733	L
15:41	338986	L
15:42	339233	L
15:43	339483	L
15:43	339746	L
15:44	340006	L
15:45	340265	L
15:45	340537	L
15:46	340799	L
15:47	341061	L
15:48	341315	L
15:48	341564	L
15:49	341814	L
15:50	342084	L
15:50	342352	L
15:51	342614	L
15:52	342881	L
15:53	343141	L
15:53	343399	L
15:54	343653	L
15:55	343904	L
15:55	344157	L
15:56	344434	L
15:57	344707	L
15:58	344968	L
15:58	345230	L
15:59	345483	L
16:00	345743	L
16:01	345995	L
16:01	346247	L
16:02	346509	L
16:03	346791	L
16:04	347061	L
16:04	347321	L
16:05	347578	L
16:06	347826	L
16:06	348082	L
16:07	348333	L
16:08	348588	L
16:09	348854	L
16:09	349133	L
16:10	349398	L
16:11	349650	L
16:11	349905	L
16:12	350152	L
16:13	350408	L
16:14	350665	L
16:14	350928	L
16:15	351196	L
16:16	351474	L
16:17	351738	L
16:17	351988	L
16:18	352239	L
16:19	352491	L
16:19	352751	L
16:20	353014	L
16:21	353279	L
16:22	353550	L
16:22	353822	L
16:23	354079	L
16:24	354325	L
16:24	354578	L
16:25	354835	L
16:26	355103	L
16:27	355367	L
16:27	355629	L
16:28	355901	L
16:29	356162	L
16:30	356410	L
16:30	356655	L
16:31	356907	L
16:32	357164	L
16:32	357438	L
16:33	357706	L
16:34	357967	L
16:35	358240	L
16:35	358499	L
16:36	358750	L
16:37	359002	L
16:37	359263	L
16:38	359534	L
16:39	359814	L
16:40	360084	L
16:40	360344	L
16:41	360610	L
16:42	360866	L
16:43	361115	L
16:43	361369	L
16:44	361632	L
16:45	361908	L
16:46	362183	L
16:46	362448	L
16:47	362704	L
16:48	362970	L
16:48	363223	L
16:49	363474	L
16:50	363734	L
16:51	364000	L
16:51	364273	L
16:52	364542	L
16:53	364798	L
16:54	365047	L
16:54	365307	L
16:55	365556	L
16:56	365806	L
16:56	366071	L
16:57	366335	L
16:58	366603	L
16:59	366869	L
16:59	367122	L
17:00	367366	L
17:01	367622	L
17:01	367876	L
17:02	368133	L
17:03	368395	L
17:04	368662	L
17:04	368927	L
17:05	369191	L
17:06	369439	L
17:06	369685	L
17:07	369944	L
17:08	370209	L
17:09	370475	L
17:09	370736	L
17:10	370975	V
17:11	371268	L
17:12	371522	L
17:12	371772	L
17:13	372019	L
17:14	372280	L
17:14	372548	L
17:15	372816	L
17:16	373076	L
17:17	373339	L
17:17	373595	L
17:18	373849	L
17:19	374076	V
17:19	374345	L
17:20	374608	L
17:21	374883	L
17:22	375151	L
17:22	375410	L
17:23	375666	L
17:24	375914	L
17:24	376168	L
17:25	376419	L
17:26	376670	L
17:27	376938	L
17:27	377215	L
17:28	377480	L
17:29	377732	L
17:29	377985	L
17:30	378232	L
17:31	378486	L
17:32	378741	L
17:32	378998	L
17:33	379269	L
17:34	379545	L
17:35	379805	L
17:35	380052	L
17:36	380303	L
17:37	380553	L
17:37	380810	L
17:38	381071	L
17:39	381279	V
17:40	381610	L
17:40	381884	L
17:41	382146	L
17:42	382394	L
17:42	382645	L
17:43	382901	L
17:44	383166	L
17:45	383430	L
17:45	383693	L
17:46	383961	L
17:47	384226	L
17:47	384477	L
17:48	384723	L
17:49	384973	L
17:50	385229	L
17:50	385503	L
17:51	385769	L
17:52	386028	L
17:53	386294	L
17:53	386550	L
17:54	386797	L
17:55	387039	L
17:55	387292	L
17:56	387553	L
17:57	387823	L
17:58	388088	L
17:58	388344	L
17:59	388606	L
18:00	388860	L
18:00	389109	L
18:01	389356	L
18:02	389616	L
18:03	389886	L
18:03	390162	L
18:04	390426	L
18:05	390679	L
18:05	390938	L
18:06	391190	L
18:07	391441	L
18:08	391694	L
18:08	391914	V
18:09	392227	L
18:10	392499	L
18:10	392759	L
18:11	393005	L
18:12	393261	L
18:13	393515	L
18:13	393767	L
18:14	394022	L
18:15	394289	L
18:15	394504	V
18:16	394830	L
18:17	395080	L
18:18	395327	L
18:18	395585	L
18:19	395841	L
18:20	396095	L
18:20	396355	L
18:21	396621	L
18:22	396888	L
18:23	397153	L
18:23	397405	L
18:24	397650	L
18:25	397907	L
18:26	398167	L
18:26	398397	V
18:27	398697	L
18:28	398963	L
18:28	399230	L
18:29	399489	L
18:30	399738	L
18:31	399984	L
18:31	400241	L
18:32	400506	L
18:33	400776	L
18:33	401038	L
18:34	401302	L
18:35	401561	L
18:36	401819	L
18:36	402068	L
18:37	402317	L
18:38	402578	L
18:39	402852	L
18:39	403119	L
18:40	403378	L
18:41	403636	L
18:41	403885	L
18:42	404138	L
18:43	404387	L
18:43	404639	L
18:44	404902	L
18:45	405181	L
18:46	405444	L
18:46	405700	L
18:47	405954	L
18:48	406199	L
18:49	406453	L
18:49	406708	L
18:50	406966	L
18:51	407229	L
18:51	407507	L
18:52	407773	L
18:53	407958	V
18:54	408273	L
18:54	408519	L
18:55	408781	L
18:56	409041	L
18:56	409309	L
18:57	409574	L
18:58	409853	L
18:59	410115	L
18:59	410362	L
19:00	410612	L
19:01	410862	L
19:02	411125	L
19:02	411350	V
19:03	411657	L
19:04	411923	L
19:05	412201	L
19:05	412454	L
19:06	412699	L
19:07	412950	L
19:07	413201	L
19:08	413467	L
19:09	413733	L
19:09	413996	L
19:10	414260	L
19:11	414527	L
19:12	414773	L
19:12	415016	L
19:13	415265	L
19:14	415517	L
19:14	415783	L
19:15	416051	L
19:16	416313	L
19:17	416568	L
19:17	416829	L
19:18	417077	L
19:19	417320	L
19:19	417571	L
19:20	417828	L
19:21	418098	L
19:22	418365	L
19:22	418624	L
19:23	418875	L
19:24	419132	L
19:24	419380	L
19:25	419624	L
19:26	419877	L
19:27	420137	L
19:27	420372	V
19:28	420673	L
19:29	420930	L
19:29	421186	L
19:30	421446	L
19:31	421696	L
19:32	421945	L
19:32	422211	L
19:33	422474	L
19:34	422746	L
19:35	423006	L
19:35	423255	L
19:36	423504	L
19:37	423762	L
19:37	424014	L
19:38	424268	L
19:39	424536	L
19:39	424799	L
19:40	425067	L
19:41	425326	L
19:42	425574	L
19:42	425820	L
19:43	426082	L
19:44	426343	L
19:45	426600	L
19:45	426866	L
19:46	427130	L
19:47	427394	L
19:47	427644	L
19:48	427891	L
19:49	428142	L
19:50	428408	L
19:50	428672	L
19:51	428933	L
19:52	429198	L
19:52	429457	L
19:53	429717	L
19:54	429963	L
19:55	430210	L
19:55	430461	L
19:56	430732	L
19:57	430995	L
19:57	431254	L
19:58	431516	L
19:59	431767	L
20:00	432020	L
20:00	432273	L
20:01	432521	L
20:02	432772	L
20:02	433048	L
20:03	433316	L
20:04	433574	L
20:05	433833	L
20:05	434084	L
20:06	434337	L
20:07	434597	L
20:07	434850	L
20:08	435104	L
20:09	435382	L
20:10	435652	L
20:10	435911	L
20:11	436162	L
20:12	436413	L
20:12	436667	L
20:13	436925	L
20:14	437183	L
20:15	437442	L
20:15	437715	L
20:16	437982	L
20:17	438239	L
20:18	438486	L
20:18	438737	L
20:19	438992	L
20:20	439255	L
20:20	439516	L
20:21	439779	L
20:22	440051	L
20:23	440316	L
20:23	440570	L
20:24	440817	L
20:25	441068	L
20:25	441326	L
20:26	441596	L
20:27	441862	L
20:28	442122	L
20:28	442391	L
20:29	442651	L
20:30	442898	L
20:30	443140	L
20:31	443393	L
20:32	443651	L
20:33	443922	L
20:33	444182	L
20:34	444439	L
20:35	444707	L
20:36	444964	L
20:36	445212	L
20:37	445457	L
20:38	445716	L
20:38	445984	L
20:39	446259	L
20:40	446522	L
20:41	446777	L
20:41	447036	L
20:42	447289	L
20:43	447537	L
20:43	447786	L
20:44	448046	L
20:45	448318	L
20:46	448593	L
20:46	448854	L
20:47	449104	L
20:48	449363	L
20:48	449617	L
20:49	449868	L
20:50	450124	L
20:51	450387	L
20:51	450656	L
20:52	450930	L
20:53	451186	L
20:53	451429	L
20:54	451687	L
20:55	451937	L
20:56	452190	L
20:56	452453	L
20:57	452721	L
20:58	452992	L
20:59	453260	L
20:59	453513	L
21:00	453759	L
21:01	454021	L
21:01	454276	L
21:02	454532	L
21:03	454798	L
21:04	455065	L
21:04	455334	L
21:05	455591	L
21:06	455839	L
21:06	456086	L
21:07	456346	L
21:08	456605	L
21:09	456867	L
21:09	457133	L
21:10	457392	L
21:11	457656	L
21:11	457910	L
21:12	458156	L
21:13	458401	L
21:14	458666	L
21:14	458930	L
21:15	459189	L
21:16	459453	L
21:16	459711	L
21:17	459967	L
21:18	460219	L
21:19	460466	L
21:19	460714	L
21:20	460987	L
21:21	461254	L
21:21	461512	L
21:22	461775	L
21:23	462029	L
21:24	462282	L
21:24	462534	L
21:25	462785	L
21:26	463034	L
21:26	463306	L
21:27	463574	L
21:28	463833	L
21:29	464088	L
21:29	464337	L
21:30	464589	L
21:31	464844	L
21:31	465096	L
21:32	465350	L
21:33	465620	L
21:34	465888	L
21:34	466149	L
21:35	466396	L
21:36	466641	L
21:36	466890	L
21:37	467146	L
21:38	467397	L
21:39	467652	L
21:39	467919	L
21:40	468191	L
21:41	468447	L
21:41	468690	L
21:42	468938	L
21:43	469186	L
21:44	469444	L
21:44	469705	L
21:45	469968	L
21:46	470237	L
21:46	470509	L
21:47	470762	L
21:48	471005	L
21:49	471257	L
21:49	471508	L
21:50	471773	L
21:51	472040	L
21:51	472305	L
21:52	472568	L
21:53	472838	L
21:54	473090	L
21:54	473334	L
21:55	473586	L
21:56	473842	L
21:56	474074	V
21:57	474381	L
21:58	474645	L
21:59	474903	L
21:59	475167	L
22:00	475420	L
22:01	475661	L
22:01	475914	L
22:02	476174	L
22:03	476448	L
22:04	476713	L
22:04	476971	L
22:05	477224	L
22:06	477484	L
22:07	477732	L
22:07	477977	L
22:08	478235	L
22:09	478495	L
22:09	478767	L
22:10	479032	L
22:11	479284	L
22:12	479534	L
22:12	479793	L
22:13	480045	L
22:14	480295	L
22:14	480559	L
22:15	480823	L
22:16	481091	L
22:17	481353	L
22:17	481604	L
22:18	481850	L
22:19	482110	L
22:19	482362	L
22:20	482615	L
22:21	482881	L
22:22	483144	L
22:22	483411	L
22:23	483665	L
22:24	483912	L
22:24	484159	L
22:25	484419	L
22:26	484677	L
22:27	484933	L
22:27	485197	L
22:28	485459	L
22:29	485722	L
22:29	485970	L
22:30	486213	L
22:31	486461	L
22:32	486725	L
22:32	486984	L
22:33	487240	L
22:34	487504	L
22:34	487761	L
22:35	488020	L
22:36	488270	L
22:36	488514	L
22:37	488764	L
22:38	489033	L
22:39	489298	L
22:39	489556	L
22:40	489819	L
22:41	490074	L
22:42	490327	L
22:42	490576	L
22:43	490824	L
22:44	491074	L
22:44	491349	L
22:45	491618	L
22:46	491875	L
22:47	492132	L
22:47	492383	L
22:48	492638	L
22:49	492886	L
22:49	493135	L
22:50	493391	L
22:51	493669	L
22:52	493932	L
22:52	494186	L
22:53	494439	L
22:54	494683	L
22:54	494935	L
22:55	495188	L
22:56	495441	L
22:56	495701	L
22:57	495976	L
22:58	496239	L
22:59	496493	L
22:59	496742	L
23:00	496989	L
23:01	497241	L
23:01	497503	L
23:02	497763	L
23:03	498022	L
23:04	498295	L
23:04	498557	L
23:05	498809	L
23:06	499053	L
23:06	499301	L
23:07	499556	L
23:08	499822	L
23:09	500088	L
23:09	500346	L
23:10	500615	L
23:11	500879	L
23:12	501129	L
23:12	501368	L
23:13	501619	L
23:14	501876	L
23:14	502140	L
23:15	502402	L
23:16	502662	L
23:17	502925	L
23:17	503179	L
23:18	503425	L
23:19	503667	L
23:19	503919	L
23:20	504178	L
23:21	504449	L
23:21	504712	L
23:22	504973	L
23:23	505231	L
23:24	505491	L
23:24	505739	L
23:25	505984	L
23:26	506242	L
23:26	506504	L
23:27	506778	L
23:28	507045	L
23:29	507299	L
23:29	507550	L
23:30	507812	L
23:31	508065	L
23:31	508310	L
23:32	508576	L
23:33	508840	L
23:34	509111	L
23:34	509374	L
23:35	509624	L
23:36	509874	L
23:37	510135	L
23:37	510389	L
23:38	510642	L
23:39	510907	L
23:39	511144	V
23:40	511443	L
23:41	511698	L
23:42	511950	L
23:42	512202	L
23:43	512464	L
23:44	512723	L
23:44	512984	L
23:45	513251	L
23:46	513516	L
23:47	513781	L
23:47	514030	L
23:48	514275	L
23:49	514527	L
23:49	514788	L
23:50	515048	L
23:51	515309	L
23:52	515575	L
23:52	515833	L
23:53	516093	L
23:54	516340	L
23:54	516583	L
23:55	516837	L
23:56	517103	L
23:57	517368	L
23:57	517624	L
23:58	517889	L
23:59	518145	L
23:59	518398	L
24:00	518644	L
24:01	518887	L
24:02	519142	L
24:02	519412	L
24:03	519678	L
24:04	519935	L
24:04	520195	L
24:05	520447	L
24:06	520699	L
24:07	520945	L
24:07	521194	L
24:08	521455	L
24:09	521728	L
24:09	521995	L
24:10	522255	L
24:11	522512	L
24:12	522759	L
24:12	523012	L
24:13	523263	L
24:14	523514	L
24:14	523777	L
24:15	524051	L
24:16	524267	V
24:17	524564	L
24:17	524813	L
24:18	525055	L
24:19	525307	L
24:19	525555	L
24:20	525806	L
24:21	526065	L
24:22	526336	L
24:22	526592	L
24:23	526831	L
24:24	527072	L
24:24	527313	L
24:25	527560	L
24:26	527810	L
24:26	528067	L
24:27	528321	L
24:28	528587	L
24:29	528842	L
24:29	529085	L
24:30	529324	L
24:31	529561	L
24:31	529806	L
24:32	530053	L
24:33	530302	L
24:33	530549	L
24:34	530798	L
24:35	531050	L
24:35	531280	L
24:36	531504	L
24:36	531718	L
24:37	531934	L
24:38	532155	L
24:38	532383	L
24:39	532622	L
24:40	532868	L
24:40	533107	L
24:41	533357	L
24:42	533584	L
24:42	533814	L
24:43	534042	L
24:44	534278	L
24:44	534520	L
24:45	534769	L
24:46	535013	L
24:46	535253	L
24:47	535490	L
24:48	535736	L
24:48	535968	L
24:49	536199	L
24:50	536441	L
24:50	536693	L
24:51	536955	L
24:52	537219	L
24:52	537467	L
24:53	537705	L
24:54	537950	L
24:54	538196	L
24:55	538438	L
24:56	538680	L
24:57	538938	L
24:57	539196	L
24:58	539456	L
24:59	539706	L
24:59	539948	L
25:00	540193	L
25:01	540450	L
25:01	540705	L
25:02	540960	L
25:03	541229	L
25:04	541497	L
25:04	541770	L
25:05	542027	L
25:06	542278	L
25:07	542539	L
25:07	542807	L
25:08	543073	L
25:09	543342	L
25:10	543614	L
25:10	543886	L
25:11	544156	L
25:12	544412	L
25:12	544663	L
25:13	544932	L
25:14	545162	V
25:15	545476	L
25:15	545745	L
25:16	546014	L
25:17	546275	L
25:18	546533	L
25:18	546782	L
25:19	547028	L
25:20	547291	L
25:20	547558	L
25:21	547818	L
25:22	548083	L
25:23	548340	L
25:23	548598	L
25:24	548855	L
25:25	549107	L
25:26	549361	L
25:26	549639	L
25:27	549912	L
25:28	550178	L
25:29	550442	L
25:29	550694	L
25:30	550957	L
25:31	551213	L
25:31	551469	L
25:32	551737	L
25:33	552023	L
25:34	552296	L
25:34	552557	L
25:35	552821	L
25:36	553076	L
25:37	553337	L
25:37	553595	L
25:38	553858	L
25:39	554135	L
25:40	554416	L
25:40	554686	L
25:41	554943	L
25:42	555203	L
25:42	555464	L
25:43	555731	L
25:44	555998	L
25:45	556269	L
25:45	556554	L
25:46	556833	L
25:47	557093	L
25:48	557349	L
25:48	557606	L
25:49	557875	L
25:50	558145	L
25:51	558413	L
25:51	558685	L
25:52	558970	L
25:53	559232	L
25:54	559484	L
25:54	559738	L
25:55	559992	L
25:56	560261	L
25:57	560531	L
25:57	560801	L
25:58	561067	L
25:59	561340	L
25:59	561592	L
26:00	561837	L
26:01	562091	L
26:02	562344	L
26:02	562613	L
26:03	562884	L
26:04	563152	L
26:05	563410	L
26:05	563677	L
26:06	563929	L
26:07	564173	L
26:07	564427	L
26:08	564681	L
26:09	564949	L
26:10	565213	L
26:10	565466	L
26:11	565592	~
26:11	565712	L
26:12	565954	L
26:12	566184	L
26:13	566420	L
26:14	566644	L
26:14	566894	L
26:15	567140	L
26:16	567396	L
26:16	567630	L
26:17	567874	L
26:18	568101	L
26:18	568347	L
26:19	568574	L
26:20	568811	L
26:20	569051	L
26:21	569300	L
26:22	569544	L
26:22	569796	L
26:23	570031	L
26:24	570255	L
26:24	570513	L
26:25	570647	~
26:25	570751	L
26:26	570986	L
26:26	571220	L
26:27	571465	L
26:28	571705	L
26:28	571936	L
26:29	572177	L
26:30	572405	L
26:30	572629	L
26:31	572868	L
26:31	573115	L
26:32	573365	L
26:33	573612	L
26:34	573869	L
26:34	574122	L
26:35	574373	L
26:36	574620	L
26:36	574863	L
26:37	575112	L
26:38	575382	L
26:39	575649	L
26:39	575909	L
26:40	576174	L
26:41	576435	L
26:41	576693	L
26:42	576943	L
26:43	577193	L
26:44	577454	L
26:44	577731	L
26:45	578001	L
26:46	578267	L
26:47	578531	L
26:47	578788	L
26:48	579048	L
26:49	579302	L
26:49	579553	L
26:50	579826	L
26:51	580104	L
26:52	580349	V
26:52	580630	L
26:53	580883	L
26:54	581138	L
26:54	581397	L
26:55	581646	L
26:56	581896	L
26:57	582167	L
26:57	582442	L
26:58	582703	L
26:59	582955	L
27:00	583206	L
27:00	583457	L
27:01	583668	V
27:02	583973	L
27:02	584231	L
27:03	584515	L
27:04	584782	L
27:05	585044	L
27:05	585297	L
27:06	585553	L
27:07	585814	L
27:07	586079	L
27:08	586347	L
27:09	586619	L
27:10	586896	L
27:11	587163	L
27:11	587416	L
27:12	587670	L
27:13	587918	L
27:13	588180	L
27:14	588448	L
27:15	588716	L
27:16	588982	L
27:16	589259	L
27:17	589521	L
27:18	589768	L
27:18	590021	L
27:19	590272	L
27:20	590538	L
27:21	590814	L
27:21	591084	L
27:22	591357	L
27:23	591634	L
27:24	591893	L
27:24	592145	L
27:25	592410	L
27:26	592681	L
27:27	592962	L
27:27	593235	L
27:28	593508	L
27:29	593782	L
27:30	594045	L
27:30	594305	L
27:31	594563	L
27:32	594830	L
27:33	595113	L
27:33	595398	L
27:34	595672	L
27:35	595934	L
27:36	596173	V
27:36	596459	L
27:37	596712	L
27:38	596980	L
27:39	597247	L
27:39	597529	L
27:40	597807	L
27:41	598070	L
27:42	598323	L
27:42	598589	L
27:43	598847	L
27:44	599102	L
27:44	599370	L
27:45	599638	L
27:46	599915	L
27:47	600183	L
27:47	600441	L
27:48	600692	L
27:49	600964	L
27:50	601228	L
27:50	601491	L
27:51	601765	L
27:52	602037	L
27:53	602310	L
27:53	602568	L
27:54	602818	L
27:55	603073	L
27:55	603342	L
27:56	603548	V
27:57	603876	L
27:58	604143	L
27:58	604418	L
27:59	604683	L
28:00	604935	L
28:01	605185	L
28:01	605449	L
28:02	605725	L
28:03	606000	L
28:04	606265	L
28:04	606534	L
28:05	606800	L
28:06	607064	L
28:06	607313	L
28:07	607560	L
28:08	607838	L
28:09	608075	V
28:09	608385	L
28:10	608652	L
28:11	608919	L
28:12	609182	L
28:12	609445	L
28:13	609701	L
28:14	609961	L
28:15	610251	L
28:15	610526	L
28:16	610793	L
28:17	611058	L
28:18	611319	L
28:18	611583	L
28:19	611848	L
28:20	612114	L
28:21	612389	L
28:21	612671	L
28:22	612946	L
28:23	613205	L
28:24	613460	L
28:24	613718	L
28:25	613984	L
28:26	614247	L
28:26	614517	L
28:27	614803	L
28:28	615079	L
28:29	615342	L
28:30	615604	L
28:30	615863	L
28:31	616131	L
28:32	616402	L
28:32	616677	L
28:33	616956	L
28:34	617245	L
28:35	617510	L
28:36	617765	L
28:36	618027	L
28:37	618288	L
28:38	618558	L
28:38	618828	L
28:39	619101	L
28:40	619379	L
28:41	619650	L
28:41	619905	L
28:42	620157	L
28:43	620413	L
28:44	620679	L
28:44	620953	L
28:45	621226	L
28:46	621493	L
28:47	621770	L
28:47	622031	L
28:48	622283	L
28:49	622542	L
28:50	622804	L
28:50	623082	L
28:51	623361	L
28:52	623633	L
28:53	623903	L
28:53	624176	L
28:54	624430	L
28:55	624680	L
28:55	624945	L
28:56	625211	L
28:57	625491	L
28:58	625762	L
28:58	626028	L
28:59	626294	L
29:00	626561	L
29:01	626820	L
29:01	627074	L
29:02	627349	L
29:03	627628	L
29:04	627910	L
29:04	628183	L
29:05	628440	L
29:06	628703	L
29:07	628971	L
29:07	629232	L
29:08	629499	L
29:09	629775	L
29:10	630056	L
29:10	630339	L
29:11	630602	L
29:12	630858	L
29:13	631126	L
29:13	631392	L
29:14	631628	V
29:15	631940	L
29:16	632215	L
29:16	632495	L
29:17	632756	L
29:18	633012	L
29:19	633265	L
29:19	633534	L
29:20	633798	L
29:21	634064	L
29:22	634338	L
29:22	634604	L
29:23	634871	L
29:24	635129	L
29:24	635384	L
29:25	635645	L
29:26	635922	L
29:27	636195	L
29:27	636467	L
29:28	636744	L
29:29	637009	L
29:30	637271	L
29:30	637531	L
29:31	637787	L
29:32	638058	L
29:33	638342	L
29:33	638618	L
29:34	638887	L
29:35	639157	L
29:36	639423	L
29:36	639689	L
29:37	639949	L
29:38	640215	L
29:39	640494	L
29:39	640762	L
29:40	641017	L
29:41	641264	L
29:41	641504	L
29:42	641748	L
29:43	642007	L
29:44	642248	L
29:44	642491	L
29:45	642740	L
29:46	642992	L
29:46	643243	L
29:47	643485	L
29:48	643720	L
29:48	643959	L
29:49	644205	L
29:50	644455	L
29:50	644701	L
29:51	644961	L
29:52	645227	L
29:53	645483	L
29:53	645723	L
29:54	645965	L
29:55	646206	L
29:55	646459	L
29:56	646719	L
29:57	646982	L
29:57	647252	L
29:58	647528	L
29:59	647790	L
30:00	648042	L
30:00	648297	L
30:01	648559	L
30:02	648784	V
30:03	649109	L
30:03	649378	L
30:04	649663	L
30:05	649931	L
