0:00	197	L
0:01	489	L
0:02	804	L
0:03	1127	L
0:03	1430	L
0:04	1739	L
0:05	2040	L
0:06	2344	L
0:07	2641	L
0:08	2961	L
0:09	3278	L
0:09	3579	L
0:10	3887	L
0:11	4195	L
0:12	4494	L
0:13	4786	L
0:14	5101	L
0:15	5419	L
0:15	5725	L
0:16	6044	L
0:17	6343	L
0:18	6638	L
0:19	6934	L
0:20	7261	L
0:21	7578	L
0:21	7884	L
0:22	8195	L
0:23	8499	L
0:24	8802	L
0:25	9104	L
0:26	9423	L
0:27	9733	L
0:27	10042	L
0:28	10362	L
0:29	10669	L
0:30	10970	L
0:31	11275	L
0:32	11603	L
0:33	11935	L
0:34	12253	L
0:34	12573	L
0:35	12888	L
0:36	13196	L
0:37	13512	L
0:38	13845	L
0:39	14167	L
0:40	14480	L
0:41	14799	L
0:41	15102	L
0:42	15402	L
0:43	15717	L
0:44	16033	L
0:45	16360	L
0:46	16663	L
0:47	16973	L
0:47	17273	L
0:48	17565	L
0:49	17886	L
0:50	18209	L
0:51	18516	L
0:52	18821	L
0:53	19143	L
0:54	19450	L
0:54	19749	L
0:55	20070	L
0:56	20395	L
0:57	20720	L
0:58	21033	L
0:59	21347	L
1:00	21653	L
1:00	21954	L
1:01	22285	L
1:02	22615	L
1:03	22942	L
1:04	23253	L
1:05	23567	L
1:06	23876	L
1:07	24182	L
1:08	24502	L
1:08	24829	L
1:09	25137	L
1:10	25454	L
1:11	25766	L
1:12	26066	L
1:13	26370	L
1:14	26695	L
1:15	27031	L
1:15	27355	L
1:16	27674	L
1:17	27983	L
1:18	28299	L
1:19	28621	L
1:20	28954	L
1:21	29283	L
1:22	29589	L
1:23	29903	L
1:23	30213	L
1:24	30523	L
1:25	30835	L
1:26	31159	L
1:27	31496	L
1:28	31813	L
1:29	32129	L
1:30	32439	L
1:30	32743	L
1:31	33071	L
1:32	33403	L
1:33	33726	L
1:34	34030	L
1:35	34336	L
1:36	34648	L
1:37	34952	L
1:37	35277	L
1:38	35604	L
1:39	35925	L
1:40	36242	L
1:41	36560	L
1:42	36868	L
1:43	37170	L
1:44	37497	L
1:45	37826	L
1:45	38135	L
1:46	38435	L
1:47	38734	L
1:48	39036	L
1:49	39337	L
1:50	39667	L
1:51	39987	L
1:51	40298	L
1:52	40617	L
1:53	40930	L
1:54	41242	L
1:55	41551	L
1:56	41875	L
1:57	42204	L
1:58	42523	L
1:59	42842	L
1:59	43143	L
2:00	43443	L
2:01	43759	L
2:02	44088	L
2:03	44411	L
2:04	44716	L
2:05	45032	L
2:05	45343	L
2:06	45650	L
2:07	45968	L
2:08	46301	L
2:09	46631	L
2:10	46946	L
2:11	47258	L
2:12	47562	L
2:12	47861	L
2:13	48187	L
2:14	48517	L
2:15	48847	L
2:16	49150	L
2:17	49455	L
2:18	49763	L
2:19	50067	L
2:19	50390	L
2:20	50698	L
2:21	51016	L
2:22	51321	L
2:23	51632	L
2:24	51940	L
2:25	52237	L
2:25	52556	L
2:26	52888	L
2:27	53209	L
2:28	53521	L
2:29	53820	L
2:30	54104	L
2:31	54430	L
2:32	54760	L
2:33	55080	L
2:33	55391	L
2:34	55703	L
2:35	56014	L
2:36	56316	L
2:37	56604	L
2:38	56922	L
2:38	57238	L
2:39	57550	L
2:40	57868	L
2:41	58171	L
2:42	58470	L
2:43	58772	L
2:44	59097	L
2:45	59416	L
2:45	59551	~
2:45	59723	L
2:46	60036	L
2:47	60337	L
2:48	60641	L
2:48	60780	~
2:49	60939	L
2:50	61252	L
2:51	61567	L
2:51	61874	L
2:52	62189	L
2:53	62489	L
2:54	62781	L
2:55	63073	L
2:56	63388	L
2:56	63707	L
2:57	64022	L
2:58	64321	L
2:59	64619	L
3:00	64919	L
3:01	65217	L
3:02	65534	L
3:02	65844	L
3:03	66153	L
3:04	66252	~
3:04	66452	L
3:05	66753	L
3:06	67046	L
3:07	67329	L
3:07	67620	L
3:08	67883	~
3:08	67937	L
3:09	68238	L
3:10	68525	L
3:11	68811	L
3:11	69093	L
3:12	69371	L
3:13	69666	L
3:14	69978	L
3:15	70284	L
3:16	70578	L
3:16	70880	L
3:17	71180	L
3:18	71466	L
3:19	71754	L
3:20	72064	L
3:21	72374	L
3:21	72676	L
3:22	72982	L
3:23	73282	L
3:24	73578	L
3:25	73864	L
3:26	74180	L
3:26	74489	L
3:27	74793	L
3:28	75082	L
3:29	75382	L
3:30	75671	L
3:30	75957	L
3:31	76270	L
3:32	76585	L
3:33	76891	L
3:34	77192	L
3:35	77490	L
3:36	77777	L
3:36	78060	L
3:37	78368	L
3:38	78679	L
3:39	78990	L
3:40	79293	L
3:41	79599	L
3:41	79895	L
3:42	80197	L
3:43	80514	L
3:44	80830	L
3:45	81143	L
3:46	81448	L
3:47	81757	L
3:47	82060	L
3:48	82363	L
3:49	82670	L
3:50	82992	L
3:51	83318	L
3:52	83635	L
3:53	83951	L
3:54	84258	L
3:54	84561	L
3:55	84887	L
3:56	85220	L
3:57	85540	L
3:58	85847	L
3:59	86158	L
4:00	86467	L
4:01	86769	L
4:01	87091	L
4:02	87413	L
4:03	87738	L
4:04	88041	L
4:05	88352	L
4:06	88665	L
4:07	88963	L
4:07	89269	L
4:08	89593	L
4:09	89910	L
4:10	90212	L
4:11	90528	L
4:12	90826	L
4:13	91113	L
4:13	91433	L
4:14	91750	L
4:15	92063	L
4:16	92363	L
4:17	92679	L
4:18	92978	L
4:19	93270	L
4:19	93589	L
4:20	93908	L
4:21	94220	L
4:22	94527	L
4:23	94830	L
4:24	95123	L
4:25	95413	L
4:25	95732	L
4:26	96051	L
4:27	96362	L
4:28	96668	L
4:29	96964	L
4:30	97266	L
4:31	97564	L
4:31	97883	L
4:32	98201	L
4:33	98522	L
4:34	98829	L
4:35	99136	L
4:36	99432	L
4:37	99721	L
4:37	100034	L
4:38	100364	L
4:39	100684	L
4:40	100988	L
4:41	101291	L
4:42	101600	L
4:43	101901	L
4:43	102222	L
4:44	102543	L
4:45	102864	L
4:46	103164	L
4:47	103475	L
4:48	103774	L
4:49	104067	L
4:49	104387	L
4:50	104711	L
4:51	105019	L
4:52	105317	L
4:53	105620	L
4:54	105920	L
4:55	106215	L
4:55	106537	L
4:56	106856	L
4:57	107172	L
4:58	107483	L
4:59	107803	L
5:00	108110	L
5:01	108407	L
5:02	108725	L
5:02	109046	L
5:03	109363	L
5:04	109670	L
5:05	109972	L
5:06	110267	L
5:07	110562	L
5:08	110885	L
5:08	111207	L
5:09	111521	L
5:10	111826	L
5:11	112131	L
5:12	112436	L
5:13	112747	L
5:14	113064	L
5:14	113379	L
5:15	113705	L
5:16	114021	L
5:17	114333	L
5:18	114630	L
5:19	114932	L
5:20	115260	L
5:21	115585	L
5:21	115891	L
5:22	116204	L
5:23	116509	L
5:24	116816	L
5:25	117108	L
5:26	117427	L
5:27	117745	L
5:27	118051	L
5:28	118364	L
5:29	118671	L
5:30	118970	L
5:31	119270	L
5:32	119588	L
5:33	119912	L
5:33	120220	L
5:34	120531	L
5:35	120835	L
5:36	121130	L
5:37	121423	L
5:38	121748	L
5:39	122066	L
5:39	122369	L
5:40	122679	L
5:41	122988	L
5:42	123294	L
5:43	123586	L
5:44	123899	L
5:45	124220	L
5:45	124524	L
5:46	124836	L
5:47	125139	L
5:48	125430	L
5:49	125720	L
5:50	126047	L
5:51	126371	L
5:51	126681	L
5:52	126982	L
5:53	127291	L
5:54	127594	L
5:55	127895	L
5:56	128219	L
5:57	128539	L
5:57	128847	L
5:58	129169	L
5:59	129475	L
6:00	129773	L
6:01	130070	L
6:02	130397	L
6:03	130719	L
6:03	131033	L
6:04	131347	L
6:05	131654	L
6:06	131962	L
6:07	132276	L
6:08	132602	L
6:09	132922	L
6:10	133231	L
6:10	133541	L
6:11	133846	L
6:12	134153	L
6:13	134456	L
6:14	134775	L
6:15	135100	L
6:16	135408	L
6:16	135717	L
6:17	136013	L
6:18	136314	L
6:19	136621	L
6:20	136950	L
6:21	137281	L
6:22	137591	L
6:23	137904	L
6:23	138213	L
6:24	138510	L
6:25	138813	L
6:26	139130	L
6:27	139454	L
6:28	139757	L
6:29	140068	L
6:29	140366	L
6:30	140662	L
6:31	140968	L
6:32	141292	L
6:33	141603	L
6:34	141904	L
6:35	142212	L
6:35	142514	L
6:36	142818	L
6:37	143123	L
6:38	143448	L
6:39	143769	L
6:40	144080	L
6:41	144399	L
6:41	144704	L
6:42	145006	L
6:43	145321	L
6:44	145646	L
6:45	145978	L
6:46	146292	L
6:47	146595	L
6:48	146891	L
6:48	147192	L
6:49	147514	L
6:50	147841	L
6:51	148158	L
6:52	148465	L
6:53	148775	L
6:54	149077	L
6:54	149369	L
6:55	149691	L
6:56	150012	L
6:57	150345	L
6:58	150656	L
6:59	150961	L
7:00	151269	L
7:01	151573	L
7:01	151898	L
7:02	152229	L
7:03	152549	L
7:04	152857	L
7:05	153170	L
7:06	153481	L
7:07	153785	L
7:08	154102	L
7:08	154425	L
7:09	154746	L
7:10	155062	L
7:11	155368	L
7:12	155671	L
7:13	155971	L
7:14	156295	L
7:15	156618	L
7:15	156931	L
7:16	157237	L
7:17	157539	L
7:18	157845	L
7:19	158153	L
7:20	158483	L
7:21	158807	L
7:21	159119	L
7:22	159446	L
7:23	159760	L
7:24	160063	L
7:25	160370	L
7:26	160700	L
7:27	161023	L
7:28	161334	L
7:29	161646	L
7:29	161941	L
7:30	162239	L
7:31	162543	L
7:32	162864	L
7:33	163188	L
7:34	163495	L
7:35	163811	L
7:35	164117	L
7:36	164423	L
7:37	164731	L
7:38	165058	L
7:39	165376	L
7:40	165684	L
7:41	165994	L
7:41	166298	L
7:42	166602	L
7:43	166915	L
7:44	167238	L
7:45	167568	L
7:46	167877	L
7:47	168186	L
7:48	168488	L
7:48	168797	L
7:49	169113	L
7:50	169424	L
7:51	169744	L
7:52	170054	L
7:53	170364	L
7:54	170670	L
7:54	170966	L
7:55	171280	L
7:56	171598	L
7:57	171925	L
7:58	172227	L
7:59	172528	L
8:00	172825	L
8:00	173117	L
8:01	173431	L
8:02	173756	L
8:03	174073	L
8:04	174374	L
8:05	174684	L
8:06	174989	L
8:06	175287	L
8:07	175594	L
8:08	175914	L
8:09	176235	L
8:10	176543	L
8:11	176859	L
8:12	177156	L
8:12	177440	L
8:13	177760	L
8:14	178083	L
8:15	178393	L
8:16	178687	L
8:17	178990	L
8:18	179285	L
8:18	179582	L
8:19	179887	L
8:20	180200	L
8:21	180517	L
8:22	180828	L
8:23	181140	L
8:23	181438	L
8:24	181733	L
8:25	182045	L
8:26	182369	L
8:27	182696	L
8:28	183008	L
8:29	183312	L
8:30	183614	L
8:30	183924	L
8:31	184242	L
8:32	184561	L
8:33	184882	L
8:34	185188	L
8:35	185497	L
8:36	185803	L
8:36	186095	L
8:37	186351	V
8:38	186720	L
8:39	187044	L
8:40	187342	L
8:41	187634	L
8:42	187920	L
8:42	188208	L
8:43	188504	L
8:44	188820	L
8:45	189126	L
8:46	189419	L
8:47	189725	L
8:47	190024	L
8:48	190324	L
8:49	190612	L
8:50	190947	L
8:51	191269	L
8:52	191578	L
8:53	191892	L
8:53	192207	L
8:54	192512	L
8:55	192823	L
8:56	193157	L
8:57	193486	L
8:58	193790	L
8:59	194098	L
8:59	194398	L
9:00	194708	L
9:01	195027	L
9:02	195346	L
9:03	195680	L
9:04	195997	L
9:05	196312	L
9:06	196619	L
9:06	196915	L
9:07	197238	L
9:08	197563	L
9:09	197874	L
9:10	198175	L
9:11	198486	L
9:12	198780	L
9:12	199071	L
9:13	199383	L
9:14	199693	L
9:15	199999	L
9:16	200296	L
9:17	200598	L
9:18	200891	L
9:18	201182	L
9:19	201486	L
9:20	201795	L
9:21	202105	L
9:22	202401	L
9:23	202700	L
9:23	202987	L
9:24	203282	L
9:25	203574	L
9:26	203889	L
9:27	204201	L
9:28	204496	L
9:28	204799	L
9:29	205098	L
9:30	205394	L
9:31	205681	L
9:32	205987	L
9:33	206300	L
9:33	206602	L
9:34	206909	L
9:35	207216	L
9:36	207513	L
9:37	207802	L
9:38	208114	L
9:38	208428	L
9:39	208735	L
9:40	209032	L
9:41	209330	L
9:42	209627	L
9:43	209922	L
9:43	210235	L
9:44	210543	L
9:45	210854	L
9:46	211152	L
9:47	211454	L
9:48	211748	L
9:48	212034	L
9:49	212347	L
9:50	212665	L
9:51	212977	L
9:52	213274	L
9:53	213575	L
9:54	213867	L
9:54	214153	L
9:55	214464	L
9:56	214780	L
9:57	215094	L
9:58	215389	L
9:59	215690	L
9:59	215989	L
10:00	216288	L
10:01	216581	L
10:02	216890	L
10:03	217201	L
10:04	217505	L
10:05	217805	L
10:05	218095	L
10:06	218396	L
10:07	218674	L
10:08	218984	L
10:09	219294	L
10:09	219589	L
10:10	219891	L
10:11	220182	L
10:12	220467	L
10:13	220750	L
10:14	221056	L
10:14	221365	L
10:15	221667	L
10:16	221958	L
10:17	222260	L
10:18	222555	L
10:19	222843	L
10:19	223149	L
10:20	223466	L
10:21	223775	L
10:22	224068	L
10:23	224362	L
10:24	224660	L
10:24	224948	L
10:25	225255	L
10:26	225574	L
10:27	225890	L
10:28	226190	L
10:29	226501	L
10:30	226804	L
10:30	227106	L
10:31	227421	L
10:32	227742	L
10:33	228062	L
10:34	228368	L
10:35	228686	L
10:36	228988	L
10:36	229297	L
10:37	229612	L
10:38	229944	L
10:39	230258	L
10:40	230562	L
10:41	230874	L
10:42	231182	L
10:43	231493	L
10:43	231800	L
10:44	232119	L
10:45	232443	L
10:46	232742	L
10:47	233051	L
10:48	233345	L
10:49	233640	L
10:49	233962	L
10:50	234292	L
10:51	234616	L
10:52	234937	L
10:53	235157	L
10:54	235510	L
10:55	235816	L
10:55	236144	L
10:56	236467	L
10:57	236797	L
10:58	237090	L
10:59	237402	L
11:00	237703	L
11:01	238001	L
11:02	238325	L
11:02	238652	L
11:03	238975	L
11:04	239287	L
11:05	239597	L
11:06	239895	L
11:07	240197	L
11:08	240530	L
11:09	240851	L
11:09	241167	L
11:10	241481	L
11:11	241794	L
11:12	242092	L
11:13	242386	L
11:14	242703	L
11:15	243017	L
11:15	243337	L
11:16	243653	L
11:17	243954	L
11:18	244257	L
11:19	244560	L
11:20	244890	L
11:21	245210	L
11:21	245517	L
11:22	245836	L
11:23	246143	L
11:24	246447	L
11:25	246752	L
11:26	247075	L
11:27	247391	L
11:28	247698	L
11:28	248023	L
11:29	248330	L
11:30	248625	L
11:31	248926	L
11:32	249250	L
11:33	249580	L
11:34	249896	L
11:35	250209	L
11:35	250522	L
11:36	250809	L
11:37	251113	L
11:38	251439	L
11:39	251752	L
11:40	252061	L
11:41	252372	L
11:41	252674	L
11:42	252975	L
11:43	253273	L
11:44	253582	L
11:45	253901	L
11:46	254214	L
11:47	254531	L
11:47	254831	L
11:48	255137	L
11:49	255443	L
11:50	255778	L
11:51	256090	L
11:52	256393	L
11:53	256705	L
11:53	257013	L
11:54	257314	L
11:55	257619	L
11:56	257939	L
11:57	258260	L
11:58	258584	L
11:59	258896	L
11:59	259194	L
12:00	259487	L
12:01	259769	L
12:02	260094	L
12:03	260411	L
12:04	260713	L
12:05	261020	L
12:05	261324	L
12:06	261627	L
12:07	261942	L
12:08	262265	L
12:09	262587	L
12:10	262909	L
12:11	263228	L
12:12	263537	L
12:12	263842	L
12:13	264163	L
12:14	264499	L
12:15	264819	L
12:16	265130	L
12:17	265438	L
12:18	265737	L
12:19	266047	L
12:19	266345	L
12:20	266661	L
12:21	266975	L
12:22	267278	L
12:23	267582	L
12:24	267881	L
12:24	268175	L
12:25	268481	L
12:26	268800	L
12:27	269128	L
12:28	269439	L
12:29	269750	L
12:30	270052	L
12:30	270353	L
12:31	270682	L
12:32	271016	L
12:33	271341	L
12:34	271647	L
12:35	271957	L
12:36	272257	L
12:37	272550	L
12:37	272865	L
12:38	273176	L
12:39	273486	L
12:40	273795	L
12:41	274108	L
12:42	274406	L
12:43	274700	L
12:43	275027	L
12:44	275354	L
12:45	275689	L
12:46	275969	L
12:47	276272	L
12:48	276572	L
12:49	276863	L
12:49	277178	L
12:50	277501	L
12:51	277813	L
12:52	278123	L
12:53	278423	L
12:54	278721	L
12:55	279013	L
12:55	279331	L
12:56	279648	L
12:57	279966	L
12:58	280269	L
12:59	280574	L
13:00	280861	L
13:00	281154	L
13:01	281478	L
13:02	281800	L
13:03	282114	L
13:04	282419	L
13:05	282731	L
13:06	283044	L
13:07	283343	L
13:07	283656	L
13:08	283977	L
13:09	284307	L
13:10	284617	L
13:11	284915	L
13:12	285215	L
13:13	285514	L
13:13	285837	L
13:14	286161	L
13:15	286491	L
13:16	286789	L
13:17	287083	L
13:18	287389	L
13:19	287682	L
13:19	287992	L
13:20	288301	L
13:21	288621	L
13:22	288927	L
13:23	289233	L
13:24	289533	L
13:25	289838	L
13:26	290164	L
13:26	290502	L
13:27	290830	L
13:28	291142	L
13:29	291460	L
13:30	291770	L
13:31	292082	L
13:32	292417	L
13:33	292745	L
13:34	293057	L
13:34	293381	L
13:35	293694	L
13:36	294006	L
13:37	294308	L
13:38	294636	L
13:39	294964	L
13:40	295273	L
13:41	295586	L
13:41	295893	L
13:42	296193	L
13:43	296506	L
13:44	296844	L
13:45	297154	L
13:46	297458	L
13:47	297767	L
13:47	298059	L
13:48	298359	L
13:49	298658	L
13:50	298975	L
13:51	299280	L
13:52	299585	L
13:53	299896	L
13:53	300196	L
13:54	300505	L
13:55	300789	L
13:56	301106	L
13:57	301426	L
13:58	301730	L
13:58	302037	L
13:59	302336	L
14:00	302638	L
14:01	302931	L
14:02	303258	L
14:03	303557	L
14:04	303860	L
14:04	304164	L
14:05	304460	L
14:06	304754	L
14:07	305043	L
14:08	305353	L
14:09	305672	L
14:09	305983	L
14:10	306285	L
14:11	306584	L
14:12	306884	L
14:13	307177	L
14:14	307498	L
14:15	307808	L
14:15	308122	L
14:16	308427	L
14:17	308736	L
14:18	309035	L
14:19	309331	L
14:20	309646	L
14:21	309965	L
14:21	310289	L
14:22	310604	L
14:23	310906	L
14:24	311201	L
14:25	311498	L
14:26	311819	L
14:27	312136	L
14:27	312441	L
14:28	312751	L
14:29	313040	L
14:30	313336	L
14:31	313630	L
14:32	313939	L
14:32	314247	L
14:33	314553	L
14:34	314853	L
14:35	315156	L
14:36	315448	L
14:37	315736	L
14:37	316049	L
14:38	316369	L
14:39	316690	L
14:40	316987	L
14:41	317288	L
14:42	317585	L
14:43	317892	L
14:43	318186	L
14:44	318491	L
14:45	318801	L
14:46	319094	L
14:47	319409	L
14:48	319681	L
14:48	319966	L
14:49	320254	L
14:50	320567	L
14:51	320884	L
14:52	321184	L
14:52	321479	L
14:53	321777	L
14:54	322072	L
14:55	322363	L
14:56	322680	L
14:57	322990	L
14:58	323287	L
14:58	323584	L
14:59	323886	L
15:00	324167	L
15:01	324445	L
15:02	324751	L
15:02	325059	L
15:03	325363	L
15:04	325657	L
15:05	325955	L
15:06	326239	L
15:07	326527	L
15:07	326842	L
15:08	327157	L
15:09	327471	L
15:10	327770	L
15:11	328065	L
15:12	328358	L
15:12	328657	L
15:13	328965	L
15:14	329277	L
15:15	329589	L
15:16	329904	L
15:17	330212	L
15:18	330507	L
15:18	330800	L
15:19	331105	L
15:20	331433	L
15:21	331743	L
15:22	332028	L
15:23	332329	L
15:23	332618	L
15:24	332916	L
15:25	333210	L
15:26	333527	L
15:27	333840	L
15:28	334148	L
15:29	334457	L
15:29	334767	L
15:30	335076	L
15:31	335377	L
15:32	335698	L
15:33	336025	L
15:34	336339	L
15:35	336655	L
15:36	336962	L
15:36	337273	L
15:37	337581	L
15:38	337910	L
15:39	338236	L
15:40	338545	L
15:41	338853	L
15:42	339161	L
15:42	339462	L
15:43	339767	L
15:44	340089	L
15:45	340408	L
15:46	340714	L
15:47	341023	L
15:48	341331	L
15:48	341613	L
15:49	341911	L
15:50	342238	L
15:51	342555	L
15:52	342856	L
15:53	343162	L
15:54	343465	L
15:54	343756	L
15:55	344065	L
15:56	344385	L
15:57	344705	L
15:58	345012	L
15:59	345327	L
16:00	345640	L
16:00	345926	L
16:01	346228	L
16:02	346542	L
16:03	346850	L
16:04	347155	L
16:05	347456	L
16:05	347747	L
16:06	348042	L
16:07	348343	L
16:08	348655	L
16:09	348955	L
16:10	349252	L
16:10	349554	L
16:11	349847	L
16:12	350141	L
16:13	350424	L
16:14	350731	L
16:15	351040	L
16:15	351354	L
16:16	351652	L
16:17	351949	L
16:18	352244	L
16:19	352531	L
16:20	352853	L
16:21	353177	L
16:21	353491	L
16:22	353792	L
16:23	354098	L
16:24	354402	L
16:25	354699	L
16:26	355016	L
16:27	355337	L
16:27	355648	L
16:28	355955	L
16:29	356263	L
16:30	356564	L
16:31	356858	L
16:32	357182	L
16:33	357507	L
16:33	357828	L
16:34	358134	L
16:35	358442	L
16:36	358739	L
16:37	359036	L
16:38	359350	L
16:39	359662	L
16:39	359970	L
16:40	360272	L
16:41	360573	L
16:42	360863	L
16:43	361145	L
16:44	361456	L
16:44	361767	L
16:45	362082	L
16:46	362382	L
16:47	362687	L
16:48	362986	L
16:49	363284	L
16:49	363593	L
16:50	363910	L
16:51	364226	L
16:52	364528	L
16:53	364834	L
16:54	365133	L
16:55	365429	L
16:55	365735	L
16:56	366056	L
16:57	366384	L
16:58	366688	L
16:59	366995	L
17:00	367296	L
17:01	367596	L
17:01	367919	L
17:02	368249	L
17:03	368574	L
17:04	368880	L
17:05	369194	L
17:06	369507	L
17:07	369808	L
17:08	370128	L
17:09	370455	L
17:09	370772	L
17:10	371085	L
17:11	371394	L
17:12	371694	L
17:13	371990	L
17:14	372317	L
17:15	372639	L
17:15	372958	L
17:16	373268	L
17:17	373579	L
17:18	373883	L
17:19	374181	L
17:20	374506	L
17:21	374832	L
17:22	375146	L
17:22	375464	L
17:23	375776	L
17:24	376080	L
17:25	376371	L
17:26	376693	L
17:27	377011	L
17:28	377323	L
17:28	377636	L
17:29	377938	L
17:30	378236	L
17:31	378540	L
17:32	378864	L
17:33	379185	L
17:34	379493	L
17:35	379813	L
17:35	380119	L
17:36	380421	L
17:37	380724	L
17:38	381048	L
17:39	381371	L
17:40	381692	L
17:41	382005	L
17:41	382309	L
17:42	382615	L
17:43	382922	L
17:44	383248	L
17:45	383574	L
17:46	383881	L
17:47	384193	L
17:48	384501	L
17:48	384811	L
17:49	385124	L
17:50	385449	L
17:51	385780	L
17:52	386085	L
17:53	386404	L
17:54	386718	L
17:55	387027	L
17:55	387345	L
17:56	387669	L
17:57	387994	L
17:58	388308	L
17:59	388611	L
18:00	388915	L
18:01	389215	L
18:02	389538	L
18:02	389859	L
18:03	390176	L
18:04	390479	L
18:05	390789	L
18:06	391091	L
18:07	391383	L
18:08	391701	L
18:08	392024	L
18:09	392348	L
18:10	392661	L
18:11	392970	L
18:12	393270	L
18:13	393574	L
18:14	393904	L
18:15	394230	L
18:15	394550	L
18:16	394868	L
18:17	395183	L
18:18	395498	L
18:19	395808	L
18:20	396132	L
18:21	396454	L
18:22	396783	L
18:23	397107	L
18:23	397417	L
18:24	397727	L
18:25	398035	L
18:26	398365	L
18:27	398686	L
18:28	398994	L
18:29	399303	L
18:30	399604	L
18:30	399912	L
18:31	400224	L
18:32	400551	L
18:33	400876	L
18:34	401182	L
18:35	401501	L
18:36	401818	L
18:37	402128	L
18:37	402445	L
18:38	402785	L
18:39	403118	L
18:40	403432	L
18:41	403747	L
18:42	404052	L
18:43	404358	L
18:44	404691	L
18:45	405018	L
18:45	405342	L
18:46	405656	L
18:47	405976	L
18:48	406279	L
18:49	406574	L
18:50	406899	L
18:51	407221	L
18:52	407542	L
18:52	407855	L
18:53	408166	L
18:54	408466	L
18:55	408777	L
18:56	409106	L
18:57	409434	L
18:58	409748	L
18:59	410071	L
18:59	410382	L
19:00	410694	L
19:01	411003	L
19:02	411331	L
19:03	411651	L
19:04	411969	L
19:05	412286	L
19:06	412590	L
19:06	412888	L
19:07	413198	L
19:08	413528	L
19:09	413858	L
19:10	414167	L
19:11	414483	L
19:12	414793	L
19:13	415101	L
19:13	415409	L
19:14	415724	L
19:15	416047	L
19:16	416350	L
19:17	416666	L
19:18	416975	L
19:19	417274	L
19:19	417584	L
19:20	417908	L
19:21	418234	L
19:22	418541	L
19:23	418846	L
19:24	419152	L
19:25	419447	L
19:26	419772	L
19:26	420108	L
19:27	420440	L
19:28	420755	L
19:29	421078	L
19:30	421403	L
19:31	421718	L
19:32	422052	L
19:33	422388	L
19:34	422704	L
19:35	423027	L
19:35	423336	L
19:36	423639	L
19:37	423944	L
19:38	424274	L
19:39	424599	L
19:40	424908	L
19:41	425224	L
19:42	425534	L
19:42	425841	L
19:43	426153	L
19:44	426482	L
19:45	426816	L
19:46	427133	L
19:47	427458	L
19:48	427770	L
19:49	428075	L
19:50	428407	L
19:50	428746	L
19:51	429082	L
19:52	429408	L
19:53	429730	L
19:54	429851	~
19:54	430052	L
19:55	430363	L
19:56	430695	L
19:57	431028	L
19:58	431352	L
19:59	431682	L
20:00	432002	L
20:00	432320	L
20:01	432438	~
20:01	432639	L
20:02	432971	L
20:03	433310	L
20:04	433626	L
20:05	433943	L
20:06	434251	L
20:07	434558	L
20:07	434876	L
20:08	435207	L
20:09	435532	L
20:10	435840	L
20:11	436158	L
20:12	436466	L
20:13	436768	L
20:14	437091	L
20:15	437421	L
20:15	437748	L
20:16	438062	L
20:17	438372	L
20:18	438676	L
20:19	438977	L
20:20	439305	L
20:21	439633	L
20:22	439948	L
20:22	440256	L
20:23	440571	L
20:24	440882	L
20:25	441196	L
20:26	441524	L
20:27	441850	L
20:28	442168	L
20:29	442492	L
20:30	442802	L
20:30	443105	L
20:31	443409	L
20:32	443739	L
20:33	444071	L
20:34	444391	L
20:35	444714	L
20:36	445022	L
20:37	445337	L
20:37	445655	L
20:38	445977	L
20:39	446300	L
20:40	446607	L
20:41	446917	L
20:42	447217	L
20:43	447510	L
20:43	447818	L
20:44	448136	L
20:45	448465	L
20:46	448770	L
20:47	449072	L
20:48	449372	L
20:49	449667	L
20:49	449970	L
20:50	450290	L
20:51	450603	L
20:52	450899	L
20:53	451204	L
20:54	451505	L
20:55	451802	L
20:55	452105	L
20:56	452425	L
20:57	452743	L
20:58	453059	L
20:59	453379	L
21:00	453687	L
21:01	453984	L
21:01	454304	L
21:02	454637	L
21:03	454955	L
21:04	455261	L
21:05	455574	L
21:06	455874	L
21:07	456175	L
21:08	456488	L
21:08	456807	L
21:09	457126	L
21:10	457436	L
21:11	457744	L
21:12	458044	L
21:13	458332	L
21:14	458646	L
21:14	458960	L
21:15	459277	L
21:16	459574	L
21:17	459868	L
21:18	460155	L
21:19	460447	L
21:19	460748	L
21:20	461061	L
21:21	461370	L
21:22	461667	L
21:23	461964	L
21:24	462261	L
21:24	462558	L
21:25	462852	L
21:26	463163	L
21:27	463475	L
21:28	463780	L
21:29	464081	L
21:29	464365	L
21:30	464649	L
21:31	464929	L
21:32	465236	L
21:33	465547	L
21:34	465849	L
21:34	466143	L
21:35	466445	L
21:36	466747	L
21:37	467037	L
21:38	467349	L
21:39	467664	L
21:39	467981	L
21:40	468286	L
21:41	468590	L
21:42	468883	L
21:43	469169	L
21:44	469480	L
21:45	469802	L
21:45	470115	L
21:46	470409	L
21:47	470712	L
21:48	471005	L
21:49	471292	L
21:50	471603	L
21:50	471915	L
21:51	472224	L
21:52	472523	L
21:53	472829	L
21:54	473121	L
21:55	473412	L
21:55	473712	L
21:56	474023	L
21:57	474334	L
21:58	474632	L
21:59	474928	L
22:00	475212	L
22:00	475500	L
22:01	475794	L
22:02	476101	L
22:03	476404	L
22:04	476701	L
22:05	477001	L
22:05	477294	L
22:06	477588	L
22:07	477872	L
22:08	478179	L
22:09	478491	L
22:10	478806	L
22:10	479104	L
22:11	479408	L
22:12	479706	L
22:13	480003	L
22:14	480327	L
22:15	480651	L
22:16	480963	L
22:16	481267	L
22:17	481575	L
22:18	481881	L
22:19	482177	L
22:20	482485	L
22:21	482800	L
22:21	483110	L
22:22	483411	L
22:23	483713	L
22:24	484007	L
22:25	484296	L
22:26	484613	L
22:27	484937	L
22:27	485258	L
22:28	485555	L
22:29	485861	L
22:30	486150	L
22:31	486443	L
22:32	486761	L
22:32	487075	L
22:33	487384	L
22:34	487685	L
22:35	487991	L
22:36	488288	L
22:37	488575	L
22:38	488886	L
22:38	489198	L
22:39	489514	L
22:40	489809	L
22:41	490097	L
22:42	490379	L
22:42	490665	L
22:43	490950	L
22:44	491248	L
22:45	491537	L
22:46	491830	L
22:46	492106	L
22:47	492400	L
22:48	492667	L
22:49	492936	L
22:50	493230	L
22:50	493520	L
22:51	493817	L
22:52	494100	L
22:53	494391	L
22:54	494670	L
22:54	494955	L
22:55	495241	L
22:56	495555	L
22:57	495870	L
22:58	496180	L
22:59	496466	L
22:59	496771	L
23:00	497048	L
23:01	497327	L
23:02	497617	L
23:03	497914	L
23:03	498207	L
23:04	498486	L
23:05	498768	L
23:06	499039	L
23:06	499312	L
23:07	499580	L
23:08	499888	L
23:09	500175	L
23:10	500461	L
23:10	500740	L
23:11	501021	L
23:12	501296	L
23:13	501569	L
23:14	501867	L
23:14	502159	L
23:15	502447	L
23:16	502722	L
23:17	503013	L
23:18	503291	L
23:18	503567	L
23:19	503834	L
23:20	504129	L
23:21	504419	L
23:21	504713	L
23:22	504999	L
23:23	505280	L
23:24	505556	L
23:25	505831	L
23:25	506124	L
23:26	506422	L
23:27	506717	L
23:28	506995	L
23:29	507286	L
23:29	507563	L
23:30	507841	L
23:31	508115	L
23:32	508403	L
23:33	508692	L
23:33	508986	L
23:34	509269	L
23:35	509551	L
23:36	509823	L
23:36	510097	L
23:37	510379	L
23:38	510679	L
23:39	510978	L
23:40	511269	L
23:40	511559	L
23:41	511840	L
23:42	512126	L
23:43	512403	L
23:44	512702	L
23:44	512996	L
23:45	513296	L
23:46	513579	L
23:47	513872	L
23:48	514160	L
23:49	514442	L
23:49	514730	L
23:50	515037	L
23:51	515345	L
23:52	515638	L
23:53	515929	L
23:53	516223	L
23:54	516510	L
23:55	516802	L
23:56	517121	L
23:57	517430	L
23:58	517733	L
23:58	518036	L
23:59	518336	L
24:00	518627	L
24:01	518911	L
24:02	519219	L
24:03	519523	L
24:03	519833	L
24:04	520137	L
24:05	520431	L
24:06	520720	L
24:07	521002	L
24:08	521311	L
24:08	521612	L
24:09	521903	L
24:10	522185	L
24:11	522475	L
24:12	522756	L
24:12	523037	L
24:13	523315	L
24:14	523610	L
24:15	523905	L
24:16	524206	L
24:16	524500	L
24:17	524791	L
24:18	525076	L
24:19	525359	L
24:20	525655	L
24:21	525964	L
24:21	526272	L
24:22	526563	L
24:23	526851	L
24:24	527150	L
24:25	527445	L
24:25	527746	L
24:26	528063	L
24:27	528382	L
24:28	528682	L
24:29	528993	L
24:30	529293	L
24:31	529587	L
24:31	529883	L
24:32	530200	L
24:33	530518	L
24:34	530818	L
24:35	531113	L
24:36	531406	L
24:36	531700	L
24:37	532005	L
24:38	532323	L
24:39	532637	L
24:40	532936	L
24:41	533245	L
24:42	533546	L
24:42	533842	L
24:43	534135	L
24:44	534450	L
24:45	534756	L
24:46	535057	L
24:47	535366	L
24:47	535661	L
24:48	535950	L
24:49	536238	L
24:50	536542	L
24:51	536848	L
24:52	537150	L
24:52	537447	L
24:53	537735	L
24:54	538030	L
24:55	538326	L
24:56	538641	L
24:57	538959	L
24:57	539279	L
24:58	539590	L
24:59	539899	L
25:00	540199	L
25:01	540498	L
25:02	540812	L
25:03	541137	L
25:04	541457	L
25:04	541764	L
25:05	542070	L
25:06	542381	L
25:07	542680	L
25:08	543002	L
25:09	543325	L
25:10	543642	L
25:10	543948	L
25:11	544255	L
25:12	544550	L
25:13	544843	L
25:14	545159	L
25:15	545484	L
25:16	545798	L
25:16	546103	L
25:17	546405	L
25:18	546696	L
25:19	546986	L
25:20	547308	L
25:21	547626	L
25:22	547938	L
25:22	548238	L
25:23	548545	L
25:24	548841	L
25:25	549132	L
25:26	549446	L
25:27	549767	L
25:27	550072	L
25:28	550372	L
25:29	550678	L
25:30	550973	L
25:31	551264	L
25:32	551591	L
25:33	551913	L
25:33	552231	L
25:34	552536	L
25:35	552850	L
25:36	553147	L
25:37	553434	L
25:38	553745	L
25:39	554060	L
25:39	554371	L
25:40	554677	L
25:41	554979	L
25:42	555262	L
25:43	555546	L
25:44	555850	L
25:44	556157	L
25:45	556460	L
25:46	556751	L
25:47	557045	L
25:48	557330	L
25:48	557623	L
25:49	557916	L
25:50	558220	L
25:51	558526	L
25:52	558827	L
25:53	559133	L
25:53	559434	L
25:54	559729	L
25:55	560025	L
25:56	560340	L
25:57	560660	L
25:58	560963	L
25:59	561267	L
25:59	561563	L
26:00	561852	L
26:01	562135	L
26:02	562453	L
26:03	562764	L
26:04	563068	L
26:04	563359	L
26:05	563661	L
26:06	563954	L
26:07	564243	L
26:08	564550	L
26:09	564866	L
26:09	565178	L
26:10	565476	L
26:11	565772	L
26:12	566056	L
26:13	566336	L
26:14	566644	L
26:14	566953	L
26:15	567263	L
26:16	567556	L
26:17	567856	L
26:18	568146	L
26:19	568443	L
26:19	568735	L
26:20	569047	L
26:21	569357	L
26:22	569660	L
26:23	569965	L
26:24	570262	L
26:24	570553	L
26:25	570849	L
26:26	571160	L
26:27	571475	L
26:28	571775	L
26:29	572084	L
26:29	572383	L
26:30	572685	L
26:31	572979	L
26:32	573291	L
26:33	573599	L
26:34	573904	L
26:34	574195	L
26:35	574491	L
26:36	574784	L
26:37	575070	L
26:38	575381	L
26:39	575701	L
26:40	576011	L
26:40	576307	L
26:41	576606	L
26:42	576903	L
26:43	577191	L
26:44	577505	L
26:45	577819	L
26:45	578132	L
26:46	578430	L
26:47	578737	L
26:48	579034	L
26:49	579321	L
26:50	579630	L
26:50	579949	L
26:51	580268	L
26:52	580571	L
26:53	580875	L
26:54	581172	L
26:55	581464	L
26:56	581778	L
26:56	582093	L
26:57	582402	L
26:58	582696	L
26:59	583000	L
27:00	583294	L
27:01	583584	L
27:01	583883	L
27:02	584195	L
27:03	584504	L
27:04	584808	L
27:05	585111	L
27:06	585394	L
27:06	585687	L
27:07	585969	L
27:08	586266	L
27:09	586571	L
27:10	586870	L
27:11	587166	L
27:11	587445	L
27:12	587729	L
27:13	588011	L
27:14	588310	L
27:15	588606	L
27:15	588904	L
27:16	589185	L
27:17	589472	L
27:18	589753	L
27:18	590026	L
27:19	590304	L
27:20	590599	L
27:21	590899	L
27:22	591194	L
27:23	591485	L
27:23	591768	L
27:24	592051	L
27:25	592328	L
27:26	592627	L
27:26	592810	~
27:27	592932	L
27:27	593232	L
27:28	593517	L
27:29	593808	L
27:29	593958	~
27:30	594096	L
27:31	594377	L
27:31	594662	L
27:32	594964	L
27:33	595267	L
27:34	595553	L
27:35	595851	L
27:35	596140	L
27:36	596428	L
27:37	596710	L
27:38	597025	L
27:39	597340	L
27:40	597648	L
27:40	597947	L
27:41	598245	L
27:42	598537	L
27:43	598828	L
27:44	599145	L
27:45	599465	L
27:46	599777	L
27:46	600080	L
27:47	600378	L
27:48	600675	L
27:49	600964	L
27:50	601272	L
27:51	601585	L
27:51	601902	L
27:52	602199	L
27:53	602498	L
27:54	602784	L
27:55	603077	L
27:56	603393	L
27:56	603707	L
27:57	604023	L
27:58	604324	L
27:59	604627	L
28:00	604926	L
28:01	605212	L
28:01	605518	L
28:02	605829	L
28:03	606149	L
28:04	606449	L
28:05	606750	L
28:06	607044	L
28:07	607338	L
28:07	607648	L
28:08	607976	L
28:09	608289	L
28:10	608587	L
28:11	608899	L
28:12	609206	L
28:13	609502	L
28:13	609802	L
28:14	610122	L
28:15	610440	L
28:16	610748	L
28:17	611053	L
28:18	611344	L
28:18	611639	L
28:19	611948	L
28:20	612269	L
28:21	612591	L
28:22	612890	L
28:23	613195	L
28:24	613488	L
28:24	613785	L
28:25	614086	L
28:26	614397	L
28:27	614703	L
28:28	615001	L
28:29	615305	L
28:30	615603	L
28:30	615895	L
28:31	616190	L
28:32	616509	L
28:33	616830	L
28:34	617135	L
28:35	617444	L
28:35	617740	L
28:36	618041	L
28:37	618336	L
28:38	618651	L
28:39	618962	L
28:40	619278	L
28:41	619563	L
28:41	619859	L
28:42	620152	L
28:43	620439	L
28:44	620743	L
28:45	621054	L
28:45	621357	L
28:46	621649	L
28:47	621931	L
28:48	622216	L
28:49	622495	L
28:49	622788	L
28:50	623094	L
28:51	623395	L
28:52	623675	L
28:53	623967	L
28:54	624252	L
28:54	624532	L
28:55	624800	L
28:56	625089	L
28:57	625381	L
28:57	625662	L
28:58	625934	L
28:59	626207	L
29:00	626473	L
29:00	626737	L
29:01	627005	L
29:02	627298	L
29:03	627578	L
29:04	627861	L
29:04	628137	L
29:05	628417	L
29:06	628690	L
29:07	628964	L
29:07	629252	L
29:08	629538	L
29:09	629823	L
29:10	630097	L
29:11	630374	L
29:11	630642	L
29:12	630918	L
29:13	631177	L
29:14	631461	L
29:14	631734	L
29:15	632020	L
29:16	632313	L
29:17	632591	L
29:17	632861	L
29:18	633128	L
29:19	633402	L
29:20	633686	L
29:21	633971	L
29:21	634246	L
29:22	634514	L
29:23	634783	L
29:24	635049	L
29:24	635319	L
29:25	635576	L
29:26	635853	L
29:27	636137	L
29:27	636429	L
29:28	636703	L
29:29	636985	L
29:30	637259	L
29:30	637551	L
29:31	637829	L
29:32	638117	L
29:33	638396	L
29:34	638709	L
29:34	638994	L
29:35	639264	L
29:36	639572	L
29:37	639828	L
29:38	640145	L
29:39	640446	L
29:39	640750	L
29:40	641039	L
29:41	641342	L
29:42	641589	L
29:43	641899	L
29:43	642182	L
29:44	642487	L
29:45	642786	L
29:46	643069	L
29:47	643358	L
29:47	643640	L
29:48	643916	L
29:49	644189	L
29:50	644487	L
29:51	644783	L
29:51	645069	L
29:52	645348	L
29:53	645652	L
29:54	645939	L
29:55	646216	L
29:55	646506	L
29:56	646810	L
29:57	647117	L
29:58	647413	L
29:59	647709	L
29:59	647994	L
30:00	648280	L
30:01	648565	L
30:02	648857	L
30:03	649148	L
30:04	649441	L
30:04	649724	L
