0:00	124	N
0:01	382	N
0:01	644	N
0:02	892	N
0:03	1149	N
0:03	1393	N
0:04	1648	N
0:05	1891	N
0:05	2147	N
0:06	2392	N
0:07	2630	N
0:08	2880	N
0:08	3128	N
0:09	3377	N
0:10	3622	N
0:10	3871	N
0:11	4119	N
0:12	4368	N
0:12	4624	N
0:13	4871	N
0:14	5119	N
0:14	5361	N
0:15	5617	N
0:16	5865	N
0:16	6109	N
0:17	6361	N
0:18	6610	N
0:19	6862	N
0:19	7117	N
0:20	7377	N
0:21	7633	N
0:21	7887	N
0:22	8150	N
0:23	8405	N
0:24	8658	N
0:24	8908	N
0:25	9168	N
0:26	9424	N
0:26	9677	N
0:27	9940	N
0:28	10195	N
0:29	10445	N
0:29	10702	N
0:30	10962	N
0:31	11220	N
0:31	11465	N
0:32	11732	N
0:33	11977	N
0:33	12232	N
0:34	12490	N
0:35	12745	N
0:36	12998	N
0:36	13249	N
0:37	13512	N
0:38	13762	N
0:38	14013	N
0:39	14258	N
0:40	14506	N
0:40	14757	N
0:41	15000	N
0:42	15260	N
0:43	15509	N
0:43	15759	N
0:44	16014	N
0:45	16269	N
0:45	16528	N
0:46	16779	N
0:47	17034	N
0:48	17282	N
0:48	17535	N
0:49	17790	N
0:50	18049	N
0:50	18295	N
0:51	18546	N
0:52	18801	N
0:52	19050	N
0:53	19305	N
0:54	19552	N
0:55	19807	N
0:55	20057	N
0:56	20314	N
0:57	20575	N
0:57	20833	N
0:58	21088	N
0:59	21345	N
1:00	21601	N
1:00	21858	N
1:01	22109	N
1:02	22367	N
1:02	22611	N
1:03	22865	N
1:04	23116	N
1:04	23373	N
1:05	23620	N
1:06	23868	N
1:07	24124	N
1:07	24370	N
1:08	24626	N
1:09	24872	N
1:09	25124	N
1:10	25372	N
1:11	25626	N
1:11	25878	N
1:12	26125	N
1:13	26370	N
1:13	26618	N
1:14	26868	N
1:15	27115	N
1:16	27361	N
1:16	27609	N
1:17	27857	N
1:18	28107	N
1:18	28354	N
1:19	28609	N
1:20	28858	N
1:20	29108	N
1:21	29360	N
1:22	29610	N
1:22	29866	N
1:23	30110	N
1:24	30361	N
1:25	30607	N
1:25	30856	N
1:26	31105	N
1:27	31355	N
1:27	31599	N
1:28	31847	N
1:29	32096	N
1:29	32344	N
1:30	32594	N
1:31	32837	N
1:31	33083	N
1:32	33333	N
1:33	33581	N
1:33	33830	N
1:34	34080	N
1:35	34323	N
1:36	34566	N
1:36	34817	N
1:37	35060	N
1:38	35303	N
1:38	35546	N
1:39	35789	N
1:40	36035	N
1:40	36282	N
1:41	36535	N
1:42	36784	N
1:42	37031	N
1:43	37280	N
1:44	37533	N
1:44	37785	N
1:45	38030	N
1:46	38284	N
1:47	38537	N
1:47	38785	N
1:48	39042	N
1:49	39295	N
1:49	39547	N
1:50	39793	N
1:51	40050	N
1:51	40301	N
1:52	40552	N
1:53	40803	N
1:54	41057	N
1:54	41310	N
1:55	41556	N
1:56	41817	N
1:56	42064	N
1:57	42313	N
1:58	42569	N
1:58	42822	N
1:59	43074	N
2:00	43319	N
2:01	43573	N
2:01	43817	N
2:02	44069	N
2:03	44317	N
2:03	44564	N
2:04	44813	N
2:05	45058	N
2:05	45317	N
2:06	45567	N
2:07	45817	N
2:07	46067	N
2:08	46321	N
2:09	46570	N
2:10	46823	N
2:10	47084	N
2:11	47338	N
2:12	47590	N
2:12	47848	N
2:13	48109	N
2:14	48363	N
2:15	48610	N
2:15	48870	N
2:16	49122	N
2:17	49377	N
2:17	49639	N
2:18	49895	N
2:19	50146	N
2:19	50399	N
2:20	50665	N
2:21	50920	N
2:22	51178	N
2:22	51437	N
2:23	51694	N
2:24	51949	N
2:25	52207	N
2:25	52468	N
2:26	52722	N
2:27	52978	N
2:27	53237	N
2:28	53494	N
2:29	53747	N
2:29	53990	N
2:30	54242	N
2:31	54489	N
2:32	54737	N
2:32	54992	N
2:33	55242	N
2:34	55491	N
2:34	55741	N
2:35	55995	N
2:36	56244	N
2:36	56496	N
2:37	56747	N
2:38	57000	N
2:39	57252	N
2:39	57503	N
2:40	57761	N
2:41	58010	N
2:41	58263	N
2:42	58517	N
2:43	58768	N
2:43	59023	N
2:44	59272	N
2:45	59528	N
2:46	59779	N
2:46	60031	N
2:47	60283	N
2:48	60537	N
2:48	60786	N
2:49	61034	N
2:50	61290	N
2:50	61537	N
2:51	61789	N
2:52	62035	N
2:53	62286	N
2:53	62540	N
2:54	62791	N
2:55	63048	N
2:55	63297	N
2:56	63551	N
2:57	63807	N
2:57	64070	N
2:58	64329	N
2:59	64583	N
3:00	64841	N
3:00	65100	N
3:01	65354	N
3:02	65612	N
3:02	65870	N
3:03	66126	N
3:04	66380	N
3:05	66645	N
3:05	66902	N
3:06	67160	N
3:07	67421	N
3:07	67678	N
3:08	67942	N
3:09	68201	N
3:10	68465	N
3:10	68723	N
3:11	68981	N
3:12	69248	N
3:13	69510	N
3:13	69771	N
3:14	70026	N
3:15	70284	N
3:15	70538	N
3:16	70795	N
3:17	71054	N
3:18	71309	N
3:18	71555	N
3:19	71818	N
3:20	72069	N
3:20	72326	N
3:21	72575	N
3:22	72834	N
3:23	73090	N
3:23	73342	N
3:24	73604	N
3:25	73853	N
3:25	74105	N
3:26	74354	N
3:27	74609	N
3:27	74857	N
3:28	75098	N
3:29	75352	N
3:30	75600	N
3:30	75848	N
3:31	76101	N
3:32	76359	N
3:32	76615	N
3:33	76869	N
3:34	77135	N
3:34	77392	N
3:35	77647	N
3:36	77898	N
3:37	78154	N
3:37	78410	N
3:38	78662	N
3:39	78925	N
3:39	79174	N
3:40	79421	N
3:41	79681	N
3:42	79935	N
3:42	80188	N
3:43	80435	N
3:44	80694	N
3:44	80947	N
3:45	81205	N
3:46	81467	N
3:47	81727	N
3:47	81976	N
3:48	82233	N
3:49	82493	N
3:49	82749	N
3:50	82999	N
3:51	83256	N
3:51	83509	N
3:52	83764	N
3:53	84019	N
3:54	84282	N
3:54	84532	N
3:55	84788	N
3:56	85055	N
3:56	85317	N
3:57	85580	N
3:58	85836	N
3:59	86099	N
3:59	86352	N
4:00	86615	N
4:01	86882	N
4:02	87145	N
4:02	87404	N
4:03	87671	N
4:04	87930	N
4:04	88191	N
4:05	88445	N
4:06	88705	N
4:07	88962	N
4:07	89217	N
4:08	89482	N
4:09	89734	N
4:09	89993	N
4:10	90247	N
4:11	90509	N
4:12	90761	N
4:12	91014	N
4:13	91266	N
4:14	91516	N
4:14	91765	N
4:15	92016	N
4:16	92265	N
4:16	92511	N
4:17	92758	N
4:18	93010	N
4:19	93257	N
4:19	93509	N
4:20	93751	N
4:21	94000	N
4:21	94241	N
4:22	94489	N
4:23	94732	N
4:23	94977	N
4:24	95220	N
4:25	95462	N
4:25	95712	N
4:26	95954	N
4:27	96202	N
4:27	96441	N
4:28	96687	N
4:29	96932	N
4:29	97178	N
4:30	97422	N
4:31	97670	N
4:31	97909	N
4:32	98155	N
4:33	98403	N
4:34	98649	N
4:34	98897	N
4:35	99140	N
4:36	99387	N
4:36	99642	N
4:37	99895	N
4:38	100150	N
4:38	100398	N
4:39	100650	N
4:40	100898	N
4:40	101154	N
4:41	101411	N
4:42	101660	N
4:43	101917	N
4:43	102166	N
4:44	102424	N
4:45	102673	N
4:45	102934	N
4:46	103185	N
4:47	103434	N
4:48	103691	N
4:48	103944	N
4:49	104196	N
4:50	104437	N
4:50	104687	N
4:51	104930	N
4:52	105176	N
4:52	105427	N
4:53	105671	N
4:54	105917	N
4:54	106159	N
4:55	106409	N
4:56	106656	N
4:56	106898	N
4:57	107142	N
4:58	107387	N
4:58	107632	N
4:59	107871	N
5:00	108125	N
5:01	108367	N
5:01	108609	N
5:02	108856	N
5:03	109108	N
5:03	109352	N
5:04	109591	N
5:05	109842	N
5:05	110085	N
5:06	110329	N
5:07	110576	N
5:07	110829	N
5:08	111078	N
5:09	111322	N
5:09	111584	N
5:10	111835	N
5:11	112090	N
5:12	112337	N
5:12	112596	N
5:13	112848	N
5:14	113105	N
5:14	113365	N
5:15	113619	N
5:16	113872	N
5:17	114130	N
5:17	114389	N
5:18	114648	N
5:19	114896	N
5:19	115155	N
5:20	115405	N
5:21	115659	N
5:22	115920	N
5:22	116175	N
5:23	116428	N
5:24	116680	N
5:24	116944	N
5:25	117200	N
5:26	117452	N
5:26	117708	N
5:27	117962	N
5:28	118216	N
5:29	118479	N
5:29	118744	N
5:30	118999	N
5:31	119258	N
5:32	119525	N
5:32	119788	N
5:33	120041	N
5:34	120303	N
5:34	120553	N
5:35	120810	N
5:36	121066	N
5:37	121329	N
5:37	121584	N
5:38	121839	N
5:39	122096	N
5:39	122351	N
5:40	122603	N
5:41	122844	N
5:41	123102	N
5:42	123346	N
5:43	123595	N
5:44	123847	N
5:44	124101	N
5:45	124349	N
5:46	124602	N
5:46	124859	N
5:47	125109	N
5:48	125361	N
5:48	125607	N
5:49	125854	N
5:50	126103	N
5:50	126349	N
5:51	126604	N
5:52	126845	N
5:53	127093	N
5:53	127340	N
5:54	127594	N
5:55	127844	N
5:55	128093	N
5:56	128349	N
5:57	128591	N
5:57	128847	N
5:58	129095	N
5:59	129353	N
5:59	129599	N
6:00	129847	N
6:01	130102	N
6:02	130353	N
6:02	130605	N
6:03	130852	N
6:04	131104	N
6:04	131354	N
6:05	131606	N
6:06	131862	N
6:06	132114	N
6:07	132370	N
6:08	132619	N
6:09	132876	N
6:09	133126	N
6:10	133376	N
6:11	133628	N
6:11	133870	N
6:12	134122	N
6:13	134368	N
6:13	134620	N
6:14	134867	N
6:15	135111	N
6:16	135362	N
6:16	135613	N
6:17	135862	N
6:18	136108	N
6:18	136357	N
6:19	136606	N
6:20	136856	N
6:20	137110	N
6:21	137360	N
6:22	137614	N
6:22	137863	N
6:23	138116	N
6:24	138366	N
6:25	138617	N
6:25	138861	N
6:26	139112	N
6:27	139359	N
6:27	139606	N
6:28	139855	N
6:29	140106	N
6:29	140352	N
6:30	140598	N
6:31	140853	N
6:31	141102	N
6:32	141349	N
6:33	141602	N
6:34	141850	N
6:34	142096	N
6:35	142346	N
6:36	142600	N
6:36	142846	N
6:37	143087	N
6:38	143338	N
6:38	143586	N
6:39	143837	N
6:40	144079	N
6:40	144334	N
6:41	144585	N
6:42	144835	N
6:43	145092	N
6:43	145346	N
6:44	145601	N
6:45	145853	N
6:45	146119	N
6:46	146378	N
6:47	146634	N
6:48	146893	N
6:48	147152	N
6:49	147405	N
6:50	147665	N
6:50	147920	N
6:51	148174	N
6:52	148422	N
6:53	148687	N
6:53	148941	N
6:54	149198	N
6:55	149450	N
6:55	149708	N
6:56	149963	N
6:57	150222	N
6:58	150489	N
6:58	150748	N
6:59	151003	N
7:00	151268	N
7:00	151529	N
7:01	151788	N
7:02	152039	N
7:03	152298	N
7:03	152554	N
7:04	152812	N
7:05	153078	N
7:05	153334	N
7:06	153591	N
7:07	153850	N
7:08	154109	N
7:08	154366	N
7:09	154616	N
7:10	154877	N
7:10	155131	N
7:11	155385	N
7:12	155647	N
7:13	155903	N
7:13	156160	N
7:14	156414	N
7:15	156676	N
7:15	156926	N
7:16	157175	N
7:17	157427	N
7:17	157678	N
7:18	157921	N
7:19	158174	N
7:20	158424	N
7:20	158673	N
7:21	158919	N
7:22	159177	N
7:22	159426	N
7:23	159677	N
7:24	159916	N
7:24	160174	N
7:25	160419	N
7:26	160666	N
7:26	160919	N
7:27	161171	N
7:28	161421	N
7:29	161671	N
7:29	161929	N
7:30	162182	N
7:31	162436	N
7:31	162687	N
7:32	162940	N
7:33	163195	N
7:34	163453	N
7:34	163711	N
7:35	163964	N
7:36	164218	N
7:36	164479	N
7:37	164737	N
7:38	164994	N
7:39	165243	N
7:39	165502	N
7:40	165749	N
7:41	166004	N
7:41	166261	N
7:42	166514	N
7:43	166769	N
7:43	167019	N
7:44	167281	N
7:45	167531	N
7:46	167787	N
7:46	168036	N
7:47	168287	N
7:48	168539	N
7:48	168794	N
7:49	169051	N
7:50	169304	N
7:50	169556	N
7:51	169811	N
7:52	170067	N
7:53	170324	N
7:53	170578	N
7:54	170835	N
7:55	171091	N
7:55	171347	N
7:56	171607	N
7:57	171861	N
7:58	172123	N
7:58	172380	N
7:59	172648	N
8:00	172909	N
8:01	173165	N
8:01	173426	N
8:02	173681	N
8:03	173942	N
8:03	174196	N
8:04	174456	N
8:05	174709	N
8:06	174963	N
8:06	175222	N
8:07	175480	N
8:08	175734	N
8:08	175986	N
8:09	176243	N
8:10	176499	N
8:10	176755	N
8:11	177017	N
8:12	177272	N
8:13	177527	N
8:13	177790	N
8:14	178048	N
8:15	178305	N
8:15	178556	N
8:16	178811	N
8:17	179066	N
8:18	179320	N
8:18	179579	N
8:19	179834	N
8:20	180088	N
8:20	180347	N
8:21	180609	N
8:22	180868	N
8:23	181121	N
8:23	181379	N
8:24	181634	N
8:25	181892	N
8:25	182155	N
8:26	182416	N
8:27	182675	N
8:28	182930	N
8:28	183196	N
8:29	183457	N
8:30	183712	N
8:31	183977	N
8:31	184236	N
8:32	184497	N
8:33	184765	N
8:33	185033	N
8:34	185300	N
8:35	185566	N
8:36	185837	N
8:36	186106	N
8:37	186362	N
8:38	186632	N
8:39	186896	N
8:39	187156	N
8:40	187423	N
8:41	187683	N
8:42	187941	N
8:42	188199	N
8:43	188466	N
8:44	188729	N
8:44	188985	N
8:45	189253	N
8:46	189514	N
8:47	189772	N
8:47	190037	N
8:48	190299	N
8:49	190560	N
8:50	190820	N
8:50	191089	N
8:51	191348	N
8:52	191601	N
8:52	191863	N
8:53	192117	N
8:54	192376	N
8:55	192637	N
8:55	192894	N
8:56	193146	N
8:57	193405	N
8:57	193663	N
8:58	193919	N
8:59	194170	N
9:00	194418	N
9:00	194672	N
9:01	194918	N
9:02	195165	N
9:02	195416	N
9:03	195663	N
9:04	195900	N
9:04	196149	N
9:05	196401	N
9:06	196650	N
9:06	196890	N
9:07	197146	N
9:08	197387	N
9:08	197637	N
9:09	197889	N
9:10	198145	N
9:11	198392	N
9:11	198639	N
9:12	198896	N
9:13	199146	N
9:13	199398	N
9:14	199641	N
9:15	199889	N
9:15	200138	N
9:16	200387	N
9:17	200639	N
9:18	200892	N
9:18	201139	N
9:19	201393	N
9:20	201653	N
9:20	201906	N
9:21	202160	N
9:22	202413	N
9:22	202664	N
9:23	202914	N
9:24	203164	N
9:25	203417	N
9:25	203665	N
9:26	203911	N
9:27	204159	N
9:27	204411	N
9:28	204658	N
9:29	204906	N
9:29	205158	N
9:30	205406	N
9:31	205657	N
9:31	205909	N
9:32	206162	N
9:33	206409	N
9:34	206659	N
9:34	206909	N
9:35	207156	N
9:36	207407	N
9:36	207644	N
9:37	207896	N
9:38	208142	N
9:38	208387	N
9:39	208639	N
9:40	208884	N
9:40	209134	N
9:41	209381	N
9:42	209636	N
9:43	209886	N
9:43	210138	N
9:44	210386	N
9:45	210635	N
9:45	210882	N
9:46	211136	N
9:47	211385	N
9:47	211630	N
9:48	211874	N
9:49	212120	N
9:49	212369	N
9:50	212615	N
9:51	212854	N
9:51	213100	N
9:52	213342	N
9:53	213587	N
9:53	213834	N
9:54	214082	N
9:55	214328	N
9:56	214573	N
9:56	214823	N
9:57	215074	N
9:58	215326	N
9:58	215568	N
9:59	215819	N
10:00	216064	N
10:00	216312	N
10:01	216563	N
10:02	216813	N
10:02	217061	N
10:03	217307	N
10:04	217562	N
10:05	217811	N
10:05	218060	N
10:06	218308	N
10:07	218552	N
10:07	218803	N
10:08	219053	N
10:09	219312	N
10:09	219564	N
10:10	219815	N
10:11	220075	N
10:12	220329	N
10:12	220585	N
10:13	220826	N
10:14	221083	N
10:14	221329	N
10:15	221579	N
10:16	221832	N
10:16	222086	N
10:17	222338	N
10:18	222589	N
10:19	222850	N
10:19	223104	N
10:20	223354	N
10:21	223609	N
10:21	223863	N
10:22	224114	N
10:23	224370	N
10:23	224625	N
10:24	224879	N
10:25	225127	N
10:26	225390	N
10:26	225640	N
10:27	225892	N
10:28	226139	N
10:28	226392	N
10:29	226642	N
10:30	226889	N
10:30	227148	N
10:31	227398	N
10:32	227645	N
10:33	227899	N
10:33	228157	N
10:34	228414	N
10:35	228660	N
10:35	228921	N
10:36	229172	N
10:37	229426	N
10:38	229686	N
10:38	229943	N
10:39	230192	N
10:40	230442	N
10:40	230704	N
10:41	230958	N
10:42	231211	N
10:42	231461	N
10:43	231716	N
10:44	231964	N
10:45	232219	N
10:45	232475	N
10:46	232724	N
10:47	232970	N
10:47	233224	N
10:48	233478	N
10:49	233728	N
10:49	233975	N
10:50	234229	N
10:51	234477	N
10:52	234721	N
10:52	234972	N
10:53	235223	N
10:54	235467	N
10:54	235715	N
10:55	235972	N
10:56	236218	N
10:56	236471	N
10:57	236717	N
10:58	236973	N
10:58	237218	N
10:59	237472	N
11:00	237722	N
11:01	237971	N
11:01	238219	N
11:02	238468	N
11:03	238725	N
11:03	238971	N
11:04	239217	N
11:05	239468	N
11:05	239716	N
11:06	239964	N
11:07	240216	N
11:07	240472	N
11:08	240719	N
11:09	240969	N
11:10	241226	N
11:10	241479	N
11:11	241735	N
11:12	241979	N
11:12	242235	N
11:13	242479	N
11:14	242728	N
11:14	242979	N
11:15	243224	N
11:16	243468	N
11:16	243712	N
11:17	243965	N
11:18	244212	N
11:19	244463	N
11:19	244539	~
11:19	244708	N
11:20	244958	N
11:21	245212	N
11:21	245468	N
11:22	245725	N
11:23	245976	N
11:23	246226	N
11:24	246478	N
11:25	246731	N
11:26	246985	N
11:26	247232	N
11:27	247481	N
11:28	247728	N
11:28	247976	N
11:29	248226	N
11:30	248479	N
11:30	248726	N
11:31	248976	N
11:32	249232	N
11:33	249490	N
11:33	249747	N
11:34	250001	N
11:34	250194	~
11:35	250258	N
11:35	250517	N
11:36	250772	N
11:37	251029	N
11:37	251279	N
11:38	251534	N
11:39	251787	N
11:40	252044	N
11:40	252304	N
11:41	252561	N
11:42	252831	N
11:43	253098	N
11:43	253372	N
11:44	253598	A
11:45	253945	N
11:46	254237	N
11:47	254539	N
11:47	254824	N
11:48	255093	N
11:49	255363	N
11:50	255626	N
11:50	255886	N
11:51	256146	N
11:52	256400	N
11:52	256659	N
11:53	256906	N
11:54	257170	N
11:55	257421	N
11:55	257676	N
11:56	257923	N
11:57	258177	N
11:57	258429	N
11:58	258679	N
11:59	258937	N
11:59	259184	N
12:00	259432	N
12:01	259681	N
12:02	259931	N
12:02	260182	N
12:03	260421	N
12:04	260671	N
12:04	260917	N
12:05	261165	N
12:06	261416	N
12:06	261668	N
12:07	261918	N
12:08	262161	N
12:08	262421	N
12:09	262672	N
12:10	262923	N
12:11	263170	N
12:11	263422	N
12:12	263670	N
12:13	263918	N
12:13	264173	N
12:14	264425	N
12:15	264667	N
12:15	264912	N
12:16	265164	N
12:17	265407	N
12:17	265645	N
12:18	265893	N
12:19	266133	N
12:19	266377	N
12:20	266624	N
12:21	266878	N
12:22	267123	N
12:22	267367	N
12:23	267623	N
12:24	267871	N
12:24	268119	N
12:25	268362	N
12:26	268617	N
12:26	268869	N
12:27	269118	N
12:28	269374	N
12:28	269632	N
12:29	269881	N
12:30	270133	N
12:31	270392	N
12:31	270645	N
12:32	270892	N
12:33	271145	N
12:33	271392	N
12:34	271642	N
12:35	271889	N
12:35	272139	N
12:36	272384	N
12:37	272628	N
12:37	272879	N
12:38	273131	N
12:39	273375	N
12:40	273616	N
12:40	273869	N
12:41	274057	~
12:41	274108	N
12:42	274353	N
12:42	274603	N
12:43	274852	N
12:44	275097	N
12:44	275344	N
12:45	275597	N
12:46	275847	N
12:46	276093	N
12:47	276335	N
12:48	276583	N
12:48	276826	N
12:49	277070	N
12:50	277318	N
12:51	277566	N
12:51	277807	N
12:52	278048	N
12:53	278302	N
12:53	278493	A
12:54	278788	N
12:55	279030	N
12:55	279281	N
12:56	279526	N
12:57	279781	N
12:57	280035	N
12:58	280289	N
12:59	280544	N
12:59	280799	N
13:00	281060	N
13:01	281317	N
13:02	281569	N
13:02	281633	~
13:02	281825	N
13:03	282073	N
13:04	282324	N
13:04	282577	N
13:05	282826	N
13:06	283076	N
13:07	283326	N
13:07	283586	N
13:08	283835	N
13:09	284093	N
13:09	284341	N
13:10	284595	N
13:11	284847	N
13:11	285100	N
13:12	285356	N
13:13	285601	N
13:14	285851	N
13:14	286099	N
13:15	286349	N
13:16	286597	N
13:16	286842	N
13:17	287089	N
13:18	287335	N
13:18	287583	N
13:19	287832	N
13:20	288081	N
13:20	288327	N
13:21	288573	N
13:22	288825	N
13:22	289073	N
13:23	289322	N
13:24	289559	N
13:25	289806	N
13:25	290047	N
13:26	290290	N
13:27	290534	N
13:27	290683	~
13:27	290777	N
13:28	291015	N
13:29	291253	N
13:29	291497	N
13:30	291738	N
13:31	291981	N
13:31	292217	N
13:32	292459	N
13:33	292703	N
13:33	292946	N
13:34	293196	N
13:35	293440	N
13:35	293686	N
13:36	293926	N
13:37	294180	N
13:37	294425	N
13:38	294485	~
13:38	294670	N
13:39	294910	N
13:39	295153	N
13:40	295390	N
13:41	295629	N
13:41	295874	N
13:42	296112	N
13:42	296205	~
13:43	296348	N
13:43	296585	N
13:44	296720	~
13:44	296828	N
13:45	297070	N
13:45	297307	N
13:46	297542	N
13:47	297780	N
13:47	298021	N
13:48	298260	N
13:49	298503	N
13:49	298601	~
13:49	298743	N
13:50	298983	N
13:51	299220	N
13:51	299467	N
13:52	299708	N
13:53	299947	N
13:53	300186	N
13:54	300429	N
13:54	300521	~
13:55	300670	N
13:55	300910	N
13:56	301162	N
13:57	301401	N
13:57	301643	N
13:58	301885	N
13:59	302136	N
13:59	302376	N
14:00	302614	N
14:01	302856	N
14:01	303098	N
14:02	303338	N
14:03	303577	N
14:03	303820	N
14:04	304058	N
14:05	304296	N
14:05	304537	N
14:06	304781	N
14:07	305023	N
14:07	305262	N
14:08	305504	N
14:09	305749	N
14:09	305996	N
14:10	306237	N
14:11	306486	N
14:12	306731	N
14:12	306969	N
14:13	307215	N
14:14	307465	N
14:14	307708	N
14:15	307945	N
14:16	308193	N
14:16	308435	N
14:17	308676	N
14:18	308924	N
14:18	309172	N
14:19	309414	N
14:20	309655	N
14:20	309904	N
14:21	310151	N
14:22	310400	N
14:22	310638	N
14:23	310890	N
14:24	311133	N
14:24	311377	N
14:25	311626	N
14:26	311877	N
14:26	312119	N
14:27	312368	N
14:28	312621	N
14:29	312870	N
14:29	313116	N
14:30	313358	N
14:31	313608	N
14:31	313853	N
14:32	314100	N
14:33	314354	N
14:33	314601	N
14:34	314850	N
14:35	315095	N
14:35	315350	N
14:36	315595	N
14:37	315839	N
14:38	316088	N
14:38	316335	N
14:39	316580	N
14:40	316828	N
14:40	317081	N
14:41	317328	N
14:42	317579	N
14:42	317835	N
14:43	318090	N
14:44	318342	N
14:44	318594	N
14:45	318851	N
14:46	319106	N
14:47	319361	N
14:47	319623	N
14:48	319880	N
14:49	320136	N
14:49	320392	N
14:50	320655	N
14:51	320908	N
14:52	321163	N
14:52	321419	N
14:53	321672	N
14:54	321929	N
14:54	322183	N
14:55	322442	N
14:56	322693	N
14:57	322944	N
14:57	323206	N
14:58	323459	N
14:59	323718	N
14:59	323969	N
15:00	324226	N
15:01	324478	N
15:02	324734	N
15:02	324991	N
15:03	325242	N
15:04	325492	N
15:04	325749	N
15:05	326001	N
15:06	326260	N
15:06	326507	N
15:07	326764	N
15:08	327015	N
15:09	327275	N
15:09	327536	N
15:10	327796	N
15:11	328053	N
15:11	328310	N
15:12	328568	N
15:13	328829	N
15:14	329079	N
15:14	329333	N
15:15	329581	N
15:16	329835	N
15:16	330093	N
15:17	330350	N
15:18	330606	N
15:19	330859	N
15:19	331122	N
15:20	331376	N
15:21	331631	N
15:21	331883	N
15:22	332137	N
15:23	332390	N
15:24	332646	N
15:24	332903	N
15:25	333157	N
15:26	333413	N
15:26	333672	N
15:27	333925	N
15:28	334184	N
15:28	334435	N
15:29	334693	N
15:30	334950	N
15:31	335206	N
15:31	335465	N
15:32	335721	N
15:33	335974	N
15:33	336231	N
15:34	336488	N
15:35	336746	N
15:36	336994	N
15:36	337253	N
15:37	337507	N
15:38	337764	N
15:38	338021	N
15:39	338281	N
15:40	338530	N
15:41	338779	N
15:41	339037	N
15:42	339293	N
15:43	339540	N
15:43	339790	N
15:44	340041	N
15:45	340295	N
15:45	340549	N
15:46	340805	N
15:47	341059	N
15:48	341307	N
15:48	341561	N
15:49	341814	N
15:50	342070	N
15:50	342315	N
15:51	342569	N
15:52	342819	N
15:52	343071	N
15:53	343327	N
15:54	343581	N
15:55	343829	N
15:55	344081	N
15:56	344339	N
15:57	344592	N
15:57	344842	N
15:58	345100	N
15:59	345354	N
16:00	345609	N
16:00	345865	N
16:01	346125	N
16:02	346377	N
16:02	346627	N
16:03	346884	N
16:04	347138	N
16:04	347393	N
16:05	347640	N
16:06	347898	N
16:07	348149	N
16:07	348399	N
16:08	348655	N
16:09	348907	N
16:09	349156	N
16:10	349408	N
16:11	349664	N
16:11	349916	N
16:12	350163	N
16:13	350416	N
16:14	350667	N
16:14	350916	N
16:15	351169	N
16:16	351425	N
16:16	351675	N
16:17	351922	N
16:18	352182	N
16:18	352433	N
16:19	352689	N
16:20	352939	N
16:21	353203	N
16:21	353463	N
16:22	353725	N
16:23	353992	N
16:24	354254	N
16:24	354516	N
16:25	354783	N
16:26	355050	N
16:26	355313	N
16:27	355569	N
16:28	355835	N
16:29	356092	N
16:29	356351	N
16:30	356617	N
16:31	356877	N
16:32	357135	N
16:32	357397	N
16:33	357668	N
16:34	357930	N
16:34	358185	N
16:35	358450	N
16:36	358706	N
16:37	358967	N
16:37	359230	N
16:38	359485	N
16:39	359737	N
16:39	359992	N
16:40	360249	N
16:41	360496	N
16:42	360745	N
16:42	360996	N
16:43	361245	N
16:44	361494	N
16:44	361750	N
16:45	362009	N
16:46	362263	N
16:46	362517	N
16:47	362781	N
16:48	363035	N
16:49	363297	N
16:49	363547	N
16:50	363804	N
16:51	364053	N
16:51	364308	N
16:52	364563	N
16:53	364805	N
16:54	365054	N
16:54	365307	N
16:55	365557	N
16:56	365809	N
16:56	366054	N
16:57	366311	N
16:58	366559	N
16:58	366811	N
16:59	367065	N
17:00	367316	N
17:01	367567	N
17:01	367816	N
17:02	368077	N
17:03	368323	N
17:03	368577	N
17:04	368826	N
17:05	369079	N
17:05	369336	N
17:06	369596	N
17:07	369855	N
17:08	370112	N
17:08	370370	N
17:09	370638	N
17:10	370895	N
17:10	371156	N
17:11	371410	N
17:12	371663	N
17:13	371920	N
17:13	372174	N
17:14	372433	N
17:15	372686	N
17:15	372938	N
17:16	373191	N
17:17	373446	N
17:18	373708	N
17:18	373956	N
17:19	374217	N
17:20	374478	N
17:20	374740	N
17:21	375007	N
17:22	375268	N
17:23	375534	N
17:23	375798	N
17:24	376062	N
17:25	376330	N
17:26	376587	N
17:26	376850	N
17:27	377110	N
17:28	377371	N
17:28	377633	N
17:29	377891	N
17:30	378151	N
17:31	378407	N
17:31	378668	N
17:32	378925	N
17:33	379180	N
17:33	379435	N
17:34	379692	N
17:35	379945	N
17:36	380199	N
17:36	380455	N
17:37	380706	N
17:38	380955	N
17:38	381213	N
17:39	381462	N
17:40	381711	N
17:40	381959	N
17:41	382210	N
17:42	382460	N
17:43	382710	N
17:43	382966	N
17:44	383217	N
17:45	383468	N
17:45	383721	N
17:46	383979	N
17:47	384235	N
17:48	384482	N
17:48	384736	N
17:49	384990	N
17:50	385245	N
17:50	385500	N
17:51	385760	N
17:52	386013	N
17:52	386264	N
17:53	386529	N
17:54	386784	N
17:55	387039	N
17:55	387289	N
17:56	387546	N
17:57	387800	N
17:57	388052	N
17:58	388313	N
17:59	388565	N
18:00	388811	N
18:00	389069	N
18:01	389325	N
18:02	389581	N
18:02	389826	N
18:03	390084	N
18:04	390334	N
18:04	390584	N
18:05	390840	N
18:06	391098	N
18:07	391350	N
18:07	391601	N
18:08	391866	N
18:09	392122	N
18:09	392379	N
18:10	392640	N
18:11	392897	N
18:12	393152	N
18:12	393410	N
18:13	393672	N
18:14	393925	N
18:14	394177	N
18:15	394439	N
18:16	394693	N
18:17	394949	N
18:17	395197	N
18:18	395453	N
18:19	395704	N
18:19	395959	N
18:20	396220	N
18:21	396475	N
18:22	396725	N
18:22	396983	N
18:23	397241	N
18:24	397496	N
18:24	397743	N
18:25	398003	N
18:26	398252	N
18:26	398503	N
18:27	398756	N
18:28	399013	N
18:29	399263	N
18:29	399512	N
18:30	399778	N
18:31	400028	N
18:31	400283	N
18:32	400540	N
18:33	400796	N
18:34	401052	N
18:34	401317	N
18:35	401586	N
18:36	401843	N
18:36	402105	N
18:37	402378	N
18:38	402637	N
18:39	402902	N
18:39	403162	N
18:40	403418	N
18:41	403678	N
18:42	403940	N
18:42	404206	N
18:43	404465	N
18:44	404726	N
18:44	404997	N
18:45	405257	N
18:46	405519	N
18:47	405781	N
18:47	406042	N
18:48	406299	N
18:49	406567	N
18:50	406829	N
18:50	407087	N
18:51	407347	N
18:52	407613	N
18:52	407872	N
18:53	408131	N
18:54	408397	N
18:55	408653	N
18:55	408913	N
18:56	409179	N
18:57	409444	N
18:58	409708	N
18:58	409970	N
18:59	410241	N
19:00	410500	N
19:01	410762	N
19:01	411021	N
19:02	411276	N
19:03	411534	N
19:03	411796	N
19:04	412057	N
19:05	412313	N
19:06	412571	N
19:06	412834	N
19:07	413092	N
19:08	413350	N
19:08	413605	N
19:09	413863	N
19:10	414124	N
19:11	414388	N
19:11	414652	N
19:12	414910	N
19:13	415170	N
19:13	415436	N
19:14	415695	N
19:15	415954	N
19:16	416207	N
19:16	416462	N
19:17	416719	N
19:18	416976	N
19:18	417238	N
19:19	417495	N
19:20	417751	N
19:21	418011	N
19:21	418274	N
19:22	418539	N
19:23	418796	N
19:24	419059	N
19:24	419319	N
19:25	419582	N
19:26	419845	N
19:26	420105	N
19:27	420363	N
19:28	420620	N
19:29	420878	N
19:29	421137	N
19:30	421391	N
19:31	421651	N
19:31	421909	N
19:32	422169	N
19:33	422430	N
19:34	422696	N
19:34	422956	N
19:35	423212	N
19:36	423478	N
19:37	423737	N
19:37	423995	N
19:38	424253	N
19:39	424511	N
19:39	424769	N
19:40	425028	N
19:41	425295	N
19:42	425553	N
19:42	425813	N
19:43	426079	N
19:44	426340	N
19:45	426602	N
19:45	426862	N
19:46	427127	N
19:47	427387	N
19:47	427650	N
19:48	427917	N
19:49	428178	N
19:50	428438	N
19:50	428703	N
19:51	428964	N
19:52	429223	N
19:53	429481	N
19:53	429743	N
19:54	430005	N
19:55	430268	N
19:55	430537	N
19:56	430798	N
19:57	431056	N
19:58	431325	N
19:58	431588	N
19:59	431850	N
20:00	432109	N
20:01	432371	N
20:01	432630	N
20:02	432894	N
20:03	433158	N
20:03	433417	N
20:04	433672	N
20:05	433941	N
20:06	434204	N
20:06	434470	N
20:07	434732	N
20:08	434999	N
20:09	435264	N
20:09	435530	N
20:10	435802	N
20:11	436066	N
20:12	436325	N
20:12	436593	N
20:13	436856	N
20:14	437118	N
20:14	437381	N
20:15	437644	N
20:16	437902	N
20:17	438163	N
20:17	438431	N
20:18	438690	N
20:19	438945	N
20:20	439215	N
20:20	439474	N
20:21	439736	N
20:22	439996	N
20:22	440258	N
20:23	440518	N
20:24	440776	N
20:25	441043	N
20:25	441299	N
20:26	441558	N
20:27	441821	N
20:28	442084	N
20:28	442341	N
20:29	442597	N
20:30	442861	N
20:30	443120	N
20:31	443385	N
20:32	443652	N
20:33	443912	N
20:33	444172	N
20:34	444441	N
20:35	444703	N
20:36	444964	N
20:36	445220	N
20:37	445481	N
20:38	445739	N
20:38	445999	N
20:39	446263	N
20:40	446518	N
20:41	446772	N
20:41	447036	N
20:42	447293	N
20:43	447553	N
20:43	447807	N
20:44	448069	N
20:45	448328	N
20:46	448589	N
20:46	448859	N
20:47	449115	N
20:48	449373	N
20:48	449637	N
20:49	449900	N
20:50	450161	N
20:51	450416	N
20:51	450683	N
20:52	450941	N
20:53	451205	N
20:54	451474	N
20:54	451738	N
20:55	452002	N
20:56	452273	N
20:57	452541	N
20:57	452810	N
20:58	453072	N
20:59	453340	N
21:00	453600	N
21:00	453860	N
21:01	454124	N
21:02	454381	N
21:02	454639	N
21:03	454899	N
21:04	455160	N
21:05	455417	N
21:05	455671	N
21:06	455933	N
21:07	456189	N
21:07	456450	N
21:08	456715	N
21:09	456975	N
21:10	457235	N
21:10	457496	N
21:11	457762	N
21:12	458022	N
21:12	458275	N
21:13	458538	N
21:14	458794	N
21:15	459055	N
21:15	459316	N
21:16	459575	N
21:17	459833	N
21:18	460090	N
21:18	460357	N
21:19	460612	N
21:20	460871	N
21:20	461126	N
21:21	461384	N
21:22	461643	N
21:23	461904	N
21:23	462165	N
21:24	462421	N
21:25	462677	N
21:25	462941	N
21:26	463199	N
21:27	463459	N
21:28	463713	N
21:28	463970	N
21:29	464230	N
21:30	464489	N
21:30	464754	N
21:31	465011	N
21:32	465270	N
21:33	465533	N
21:33	465796	N
21:34	466064	N
21:35	466318	N
21:36	466583	N
21:36	466843	N
21:37	467105	N
21:38	467371	N
21:38	467632	N
21:39	467890	N
21:40	468149	N
21:41	468410	N
21:41	468671	N
21:42	468924	N
21:43	469186	N
21:44	469446	N
21:44	469705	N
21:45	469973	N
21:46	470236	N
21:46	470500	N
21:47	470766	N
21:48	471034	N
21:49	471301	N
21:49	471558	N
21:50	471826	N
21:51	472089	N
21:52	472353	N
21:52	472621	N
21:53	472889	N
21:54	473154	N
21:55	473424	N
21:55	473695	N
21:56	473962	N
21:57	474226	N
21:58	474498	N
21:58	474768	N
21:59	475037	N
22:00	475314	N
22:01	475581	N
22:01	475844	N
22:02	476119	N
22:03	476384	N
22:04	476647	N
22:04	476910	N
22:05	477172	N
22:06	477433	N
22:06	477698	N
22:07	477964	N
22:08	478226	N
22:09	478485	N
22:09	478759	N
22:10	479029	N
22:11	479290	N
22:12	479560	N
22:12	479824	N
22:13	480086	N
22:14	480352	N
22:15	480616	N
22:15	480875	N
22:16	481132	N
22:17	481401	N
22:17	481661	N
22:18	481918	N
22:19	482180	N
22:20	482437	N
22:20	482694	N
22:21	482956	N
22:22	483221	N
22:23	483483	N
22:23	483737	N
22:24	484005	N
22:25	484263	N
22:25	484519	N
22:26	484778	N
22:27	485036	N
22:28	485294	N
22:28	485555	N
22:29	485822	N
22:30	486079	N
22:30	486337	N
22:31	486608	N
22:32	486872	N
22:33	487135	N
22:33	487400	N
22:34	487666	N
22:35	487926	N
22:36	488192	N
22:36	488457	N
22:37	488713	N
22:38	488971	N
22:38	489238	N
22:39	489496	N
22:40	489747	N
22:41	490003	N
22:41	490258	N
22:42	490513	N
22:43	490768	N
22:43	491035	N
22:44	491289	N
22:45	491551	N
22:46	491817	N
22:46	492079	N
22:47	492339	N
22:48	492592	N
22:49	492855	N
22:49	493110	N
22:50	493373	N
22:51	493637	N
22:51	493896	N
22:52	494153	N
22:53	494420	N
22:54	494684	N
22:54	494951	N
22:55	495210	N
22:56	495477	N
22:57	495739	N
22:57	496008	N
22:58	496279	N
22:59	496540	N
23:00	496800	N
23:00	497065	N
23:01	497331	N
23:02	497591	N
23:02	497848	N
23:03	498109	N
23:04	498364	N
23:05	498622	N
23:05	498885	N
23:06	499145	N
23:07	499402	N
23:07	499665	N
23:08	499929	N
23:09	500194	N
23:10	500449	N
23:10	500716	N
23:11	500973	N
23:12	501233	N
23:13	501498	N
23:13	501760	N
23:14	502025	N
23:15	502288	N
23:15	502554	N
23:16	502817	N
23:17	503077	N
23:18	503343	N
23:18	503602	N
23:19	503863	N
23:20	504131	N
23:21	504393	N
23:21	504657	N
23:22	504921	N
23:23	505190	N
23:24	505457	N
23:24	505716	N
23:25	505986	N
23:26	506246	N
23:26	506514	N
23:27	506781	N
23:28	507045	N
23:29	507309	N
23:29	507574	N
23:30	507844	N
23:31	508110	N
23:32	508373	N
23:32	508638	N
23:33	508905	N
23:34	509173	N
23:35	509443	N
23:35	509710	N
23:36	509974	N
23:37	510242	N
23:38	510511	N
23:38	510781	N
23:39	511039	N
23:40	511306	N
23:41	511568	N
23:41	511832	N
23:42	512100	N
23:43	512361	N
23:43	512625	N
23:44	512890	N
23:45	513156	N
23:46	513423	N
23:46	513680	N
23:47	513943	N
23:48	514203	N
23:49	514465	N
23:49	514727	N
23:50	514986	N
23:51	515247	N
23:51	515508	N
23:52	515771	N
23:53	516033	N
23:54	516286	N
23:54	516547	N
23:55	516806	N
23:56	517065	N
23:57	517329	N
23:57	517591	N
23:58	517853	N
23:59	518119	N
23:59	518384	N
24:00	518650	N
24:01	518907	N
24:02	519169	N
24:02	519434	N
24:03	519692	N
24:04	519957	N
24:05	520218	N
24:05	520475	N
24:06	520740	N
24:07	520999	N
24:07	521264	N
24:08	521513	N
24:09	521775	N
24:10	522033	N
24:10	522295	N
24:11	522558	N
24:12	522818	N
24:12	523077	N
24:13	523337	N
24:14	523605	N
24:15	523867	N
24:15	524121	N
24:16	524385	N
24:17	524647	N
24:18	524909	N
24:18	525179	N
24:19	525446	N
24:20	525710	N
24:21	525976	N
24:21	526250	N
24:22	526522	N
24:23	526781	N
24:24	527055	N
24:24	527319	N
24:25	527586	N
24:26	527857	N
24:27	528122	N
24:27	528383	N
24:28	528650	N
24:29	528916	N
24:29	529179	N
24:30	529435	N
24:31	529700	N
24:32	529963	N
24:32	530221	N
24:33	530492	N
24:34	530755	N
24:35	531017	N
24:35	531287	N
24:36	531554	N
24:37	531824	N
24:38	532082	N
24:38	532352	N
24:39	532616	N
24:40	532879	N
24:40	533149	N
24:41	533414	N
24:42	533677	N
24:43	533947	N
24:43	534217	N
24:44	534482	N
24:45	534745	N
24:46	535017	N
24:46	535283	N
24:47	535550	N
24:48	535824	N
24:49	536087	N
24:49	536351	N
24:50	536620	N
24:51	536883	N
24:52	537146	N
24:52	537401	N
24:53	537666	N
24:54	537923	N
24:54	538186	N
24:55	538454	N
24:56	538711	N
24:57	538974	N
24:57	539242	N
24:58	539510	N
24:59	539778	N
25:00	540038	N
25:00	540306	N
25:01	540567	N
25:02	540833	N
25:03	541106	N
25:03	541366	N
25:04	541629	N
25:05	541903	N
25:06	542171	N
25:06	542442	N
25:07	542710	N
25:08	542977	N
25:09	543246	N
25:09	543523	N
25:10	543802	N
25:11	544065	N
25:12	544332	N
25:12	544608	N
25:13	544874	N
25:14	545143	N
25:15	545412	N
25:15	545672	N
25:16	545937	N
25:17	546203	N
25:17	546468	N
25:18	546732	N
25:19	546993	N
25:20	547267	N
25:20	547531	N
25:21	547796	N
25:22	548066	N
25:23	548327	N
25:23	548593	N
25:24	548864	N
25:25	549130	N
25:26	549395	N
25:26	549664	N
25:27	549933	N
25:28	550198	N
25:29	550460	N
25:29	550727	N
25:30	550991	N
25:31	551259	N
25:32	551531	N
25:32	551796	N
25:33	552064	N
25:34	552333	N
25:35	552603	N
25:35	552869	N
25:36	553124	N
25:37	553389	N
25:37	553646	N
25:38	553910	N
25:39	554174	N
25:40	554432	N
25:40	554691	N
25:41	554958	N
25:42	555222	N
25:43	555489	N
25:43	555749	N
25:44	556014	N
25:45	556277	N
25:45	556545	N
25:46	556814	N
25:47	557076	N
25:48	557342	N
25:48	557607	N
25:49	557873	N
25:50	558140	N
25:51	558398	N
25:51	558662	N
25:52	558921	N
25:53	559185	N
25:54	559452	N
25:54	559713	N
25:55	559975	N
25:56	560243	N
25:56	560506	N
25:57	560772	N
25:58	561032	N
25:59	561296	N
25:59	561557	N
26:00	561819	N
26:01	562084	N
26:02	562344	N
26:02	562604	N
26:03	562867	N
26:04	563127	N
26:04	563389	N
26:05	563645	N
26:06	563906	N
26:07	564168	N
26:07	564427	N
26:08	564691	N
26:09	564950	N
26:10	565207	N
26:10	565470	N
26:11	565728	N
26:12	565991	N
26:12	566241	N
26:13	566504	N
26:14	566760	N
26:15	567018	N
26:15	567277	N
26:16	567534	N
26:17	567792	N
26:17	568048	N
26:18	568312	N
26:19	568571	N
26:20	568825	N
26:20	569084	N
26:21	569344	N
26:22	569602	N
26:22	569865	N
26:23	570127	N
26:24	570387	N
26:25	570642	N
26:25	570909	N
26:26	571170	N
26:27	571426	N
26:28	571684	N
26:28	571941	N
26:29	572200	N
26:30	572454	N
26:30	572719	N
26:31	572972	N
26:32	573227	N
26:33	573489	N
26:33	573748	N
26:34	574007	N
26:35	574262	N
26:35	574522	N
26:36	574779	N
26:37	575038	N
26:38	575302	N
26:38	575564	N
26:39	575819	N
26:40	576084	N
26:40	576343	N
26:41	576606	N
26:42	576857	N
26:43	577122	N
26:43	577379	N
26:44	577635	N
26:45	577899	N
26:45	578154	N
26:46	578411	N
26:47	578669	N
26:48	578931	N
26:48	579188	N
26:49	579441	N
26:50	579701	N
26:50	579959	N
26:51	580213	N
26:52	580476	N
26:53	580732	N
26:53	580990	N
26:54	581249	N
26:55	581515	N
26:56	581775	N
26:56	582028	N
26:57	582295	N
26:58	582555	N
26:58	582817	N
26:59	583082	N
27:00	583346	N
27:01	583606	N
27:01	583870	N
27:02	584138	N
27:03	584396	N
27:04	584651	N
27:04	584911	N
27:05	585169	N
27:06	585422	N
27:06	585685	N
27:07	585940	N
27:08	586195	N
27:09	586453	N
27:09	586718	N
27:10	586979	N
27:11	587233	N
27:11	587500	N
27:12	587757	N
27:13	588018	N
27:14	588284	N
27:14	588547	N
27:15	588806	N
27:16	589069	N
27:17	589338	N
27:17	589600	N
27:18	589857	N
27:19	590124	N
27:19	590384	N
27:20	590644	N
27:21	590911	N
27:22	591173	N
27:22	591433	N
27:23	591696	N
27:24	591963	N
27:25	592219	N
27:25	592473	N
27:26	592735	N
27:27	592990	N
27:27	593244	N
27:28	593505	N
27:29	593762	N
27:30	594020	N
27:30	594279	N
27:31	594545	N
27:32	594806	N
27:32	595059	N
27:33	595326	N
27:34	595583	N
27:35	595846	N
27:35	596116	N
27:36	596380	N
27:37	596642	N
27:38	596902	N
27:38	597173	N
27:39	597430	N
27:40	597688	N
27:40	597950	N
27:41	598205	N
27:42	598467	N
27:43	598731	N
27:43	598995	N
27:44	599253	N
27:45	599516	N
27:46	599787	N
27:46	600048	N
27:47	600309	N
27:48	600572	N
27:48	600830	N
27:49	601091	N
27:50	601354	N
27:51	601616	N
27:51	601871	N
27:52	602129	N
27:53	602395	N
27:54	602654	N
27:54	602913	N
27:55	603174	N
27:56	603432	N
27:56	603692	N
27:57	603957	N
27:58	604221	N
27:59	604481	N
27:59	604739	N
28:00	605007	N
28:01	605265	N
28:02	605525	N
28:02	605783	N
28:03	606037	N
28:04	606296	N
28:04	606553	N
28:05	606815	N
28:06	607069	N
28:07	607328	N
28:07	607589	N
28:08	607848	N
28:09	608109	N
28:09	608365	N
28:10	608625	N
28:11	608883	N
28:12	609144	N
28:12	609406	N
28:13	609663	N
28:14	609919	N
28:14	610178	N
28:15	610434	N
28:16	610691	N
28:17	610938	N
28:17	611196	N
28:18	611449	N
28:19	611708	N
28:19	611968	N
28:20	612226	N
28:21	612487	N
28:22	612746	N
28:22	613011	N
28:23	613274	N
28:24	613529	N
28:24	613789	N
28:25	614047	N
28:26	614306	N
28:27	614568	N
28:27	614828	N
28:28	615086	N
28:29	615341	N
28:30	615608	N
28:30	615867	N
28:31	616127	N
28:32	616387	N
28:32	616644	N
28:33	616907	N
28:34	617167	N
28:35	617434	N
28:35	617693	N
28:36	617949	N
28:37	618217	N
28:37	618477	N
28:38	618738	N
28:39	618997	N
28:40	619258	N
28:40	619518	N
28:41	619783	N
28:42	620050	N
28:43	620314	N
28:43	620576	N
28:44	620849	N
28:45	621118	N
28:46	621384	N
28:46	621654	N
28:47	621919	N
28:48	622184	N
28:49	622451	N
28:49	622719	N
28:50	622984	N
28:51	623247	N
28:51	623519	N
28:52	623786	N
28:53	624042	N
28:54	624313	N
28:54	624576	N
28:55	624838	N
28:56	625105	N
28:57	625367	N
28:57	625632	N
28:58	625893	N
28:59	626162	N
29:00	626425	N
29:00	626676	N
29:01	626943	N
29:02	627198	N
29:02	627458	N
29:03	627717	N
29:04	627977	N
29:05	628231	N
29:05	628489	N
29:06	628751	N
29:07	629012	N
29:07	629265	N
29:08	629529	N
29:09	629789	N
29:10	630048	N
29:10	630316	N
29:11	630578	N
29:12	630840	N
29:13	631099	N
29:13	631367	N
29:14	631634	N
29:15	631887	N
29:15	632155	N
29:16	632414	N
29:17	632673	N
29:18	632938	N
29:18	633201	N
29:19	633459	N
29:20	633719	N
29:21	633986	N
29:21	634248	N
29:22	634503	N
29:23	634770	N
29:23	635030	N
29:24	635292	N
29:25	635558	N
29:26	635822	N
29:26	636082	N
29:27	636343	N
29:28	636612	N
29:29	636872	N
29:29	637129	N
29:30	637394	N
29:31	637656	N
29:31	637916	N
29:32	638182	N
29:33	638448	N
29:34	638706	N
29:34	638969	N
29:35	639237	N
29:36	639497	N
29:37	639751	N
29:37	640015	N
29:38	640274	N
29:39	640530	N
29:39	640793	N
29:40	641050	N
29:41	641306	N
29:42	641560	N
29:42	641828	N
29:43	642083	N
29:44	642339	N
29:44	642598	N
29:45	642855	N
29:46	643113	N
29:47	643374	N
29:47	643640	N
29:48	643897	N
29:49	644156	N
29:50	644425	N
29:50	644684	N
29:51	644942	N
29:52	645200	N
29:52	645457	N
29:53	645713	N
29:54	645974	N
29:55	646239	N
29:55	646495	N
29:56	646751	N
29:57	647018	N
29:57	647277	N
29:58	647540	N
29:59	647798	N
30:00	648059	N
30:00	648320	N
30:01	648582	N
30:02	648848	N
30:03	649105	N
30:03	649361	N
30:04	649626	N
30:05	649883	N
