0:00	170	N
0:01	583	N
0:02	966	N
0:03	1326	N
0:04	1704	N
0:05	2094	N
0:06	2511	N
0:07	2872	N
0:09	3251	N
0:10	3646	N
0:11	4016	N
0:12	4351	N
0:13	4699	N
0:14	5085	N
0:15	5453	N
0:16	5774	N
0:17	6153	N
0:18	6585	N
0:19	6978	N
0:20	7329	N
0:21	7730	N
0:22	8117	N
0:23	8451	N
0:24	8644	a
0:25	9047	N
0:26	9452	N
0:27	9829	N
0:28	10197	N
0:29	10577	N
0:30	10989	N
0:31	11384	N
0:32	11742	N
0:33	12119	N
0:34	12495	N
0:35	12873	N
0:36	13239	N
0:37	13609	N
0:38	13981	N
0:39	14365	N
0:40	14699	N
0:41	15051	N
0:42	15461	N
0:43	15835	N
0:44	16164	N
0:45	16522	N
0:46	16901	N
0:48	17290	N
0:49	17647	N
0:50	18014	N
0:51	18394	N
0:52	18773	N
0:53	19113	N
0:54	19512	N
0:55	19922	N
0:56	20313	N
0:57	20666	N
0:58	21026	N
0:59	21388	N
1:00	21772	N
1:01	22140	N
1:02	22498	N
1:03	22902	N
1:04	23258	N
1:05	23625	N
1:06	24034	N
1:07	24441	N
1:08	24792	N
1:09	25133	N
1:10	25516	N
1:11	25897	N
1:12	26255	N
1:13	26638	N
1:15	27028	N
1:16	27395	N
1:17	27720	N
1:18	28121	N
1:19	28527	N
1:20	28914	N
1:21	29297	N
1:22	29681	N
1:23	30050	N
1:24	30415	N
1:25	30779	N
1:26	31136	N
1:27	31506	N
1:28	31860	N
1:29	32225	N
1:30	32616	N
1:31	33002	N
1:32	33343	N
1:33	33708	N
1:34	34091	N
1:35	34481	N
1:36	34860	N
1:37	35231	N
1:38	35627	N
1:40	36008	N
1:40	36340	N
1:41	36707	N
1:43	37113	N
1:44	37504	N
1:45	37856	N
1:46	38213	N
1:47	38571	N
1:48	38963	N
1:49	39327	N
1:50	39687	N
1:51	40085	N
1:52	40460	N
1:53	40797	N
1:54	41191	N
1:55	41588	N
1:56	41944	N
1:57	42287	N
1:58	42673	N
1:59	43021	N
2:00	43392	N
2:01	43757	N
2:02	44113	N
2:03	44471	N
2:04	44799	N
2:05	45151	N
2:06	45551	N
2:07	45970	N
2:08	46333	N
2:09	46702	N
2:10	47081	N
2:11	47471	N
2:12	47841	N
2:13	48213	N
2:15	48609	N
2:16	48990	N
2:16	49319	N
2:18	49695	N
2:19	50106	N
2:20	50492	N
2:21	50843	N
2:22	51194	N
2:23	51544	N
2:24	51938	N
2:25	52301	N
2:26	52678	N
2:27	53082	N
2:28	53471	N
2:29	53851	N
2:30	54258	N
2:31	54662	N
2:32	55019	N
2:33	55397	N
2:34	55768	N
2:36	56185	N
2:37	56565	N
2:38	56937	N
2:39	57314	N
2:40	57687	N
2:41	58005	N
2:42	58380	N
2:43	58791	N
2:44	59170	N
2:45	59515	N
2:46	59873	N
2:47	60236	N
2:48	60599	N
2:49	60930	N
2:50	61303	N
2:51	61678	N
2:52	62041	N
2:53	62360	N
2:54	62772	N
2:55	63181	N
2:56	63552	N
2:57	63900	N
2:58	64257	N
2:59	64638	N
3:00	65042	N
3:01	65417	N
3:02	65790	N
3:03	66176	N
3:04	66549	N
3:05	66883	N
3:06	67218	N
3:07	67590	N
3:08	67998	N
3:09	68312	N
3:10	68594	N
3:11	68881	N
3:12	69218	N
3:13	69535	N
3:14	69866	N
3:15	70319	N
3:16	70770	N
3:17	71166	N
3:18	71622	N
3:20	72046	N
3:21	72474	N
3:22	72867	N
3:23	73253	N
3:24	73673	N
3:25	74105	N
3:26	74494	N
3:27	74845	N
3:28	75216	N
3:30	75634	N
3:31	76040	N
3:32	76396	N
3:33	76785	N
3:34	77165	N
3:35	77523	N
3:36	77872	N
3:37	78227	N
3:38	78597	N
3:39	78972	N
3:40	79342	N
3:41	79680	N
3:42	80070	N
3:43	80482	N
3:44	80864	N
3:45	81178	N
3:46	81493	N
3:47	81849	N
3:48	82267	N
3:49	82657	N
3:50	83035	N
3:51	83432	N
3:52	83805	N
3:53	84156	N
3:54	84535	N
3:55	84911	N
3:56	85288	N
3:57	85630	N
3:58	85984	N
3:59	86375	N
4:01	86797	N
4:02	87157	N
4:03	87503	N
4:04	87856	N
4:04	88180	N
4:06	88560	N
4:07	88980	N
4:08	89396	N
4:09	89757	N
4:10	90138	N
4:11	90523	N
4:12	90923	N
4:13	91275	N
4:14	91633	N
4:15	92032	N
4:16	92412	N
4:17	92758	N
4:18	93148	N
4:19	93566	N
4:20	93953	N
4:21	94317	N
4:23	94687	N
4:24	95084	N
4:25	95481	N
4:26	95839	N
4:27	96219	N
4:28	96602	N
4:29	96984	N
4:30	97361	N
4:31	97723	N
4:32	98087	N
4:33	98459	N
4:34	98798	N
4:35	99147	N
4:36	99580	N
4:37	99985	N
4:38	100354	N
4:39	100740	N
4:40	101130	N
4:41	101510	N
4:42	101852	N
4:43	102200	N
4:44	102562	N
4:45	102928	N
4:46	103251	N
4:47	103594	N
4:48	104013	N
4:50	104416	N
4:51	104796	N
4:52	105171	N
4:53	105550	N
4:54	105950	N
4:55	106313	N
4:56	106671	N
4:57	107061	N
4:58	107437	N
4:59	107759	N
5:00	108125	N
5:01	108535	N
5:02	108932	N
5:03	109282	N
5:04	109641	N
5:05	110023	N
5:06	110425	N
5:07	110796	N
5:08	111118	N
5:09	111472	N
5:10	111826	N
5:11	112147	N
5:12	112550	N
5:13	112972	N
5:14	113364	N
5:15	113717	N
5:16	114085	N
5:17	114473	N
5:19	114847	N
5:20	115217	N
5:21	115596	N
5:22	115970	N
5:23	116303	N
5:24	116681	N
5:25	117062	N
5:26	117434	N
5:27	117786	N
5:28	118144	N
5:29	118513	N
5:30	118923	N
5:31	119304	N
5:32	119667	N
5:33	120060	N
5:34	120451	N
5:35	120793	N
5:36	121146	N
5:37	121536	N
5:38	121946	N
5:39	122321	N
5:40	122715	N
5:42	123126	N
5:43	123550	N
5:44	123924	N
5:45	124308	N
5:46	124695	N
5:47	125080	N
5:48	125471	N
5:49	125868	N
5:50	126255	N
5:51	126643	N
5:52	126997	N
5:53	127360	N
5:54	127790	N
5:56	128171	N
5:56	128506	N
5:57	128854	N
5:58	129217	N
6:00	129601	N
6:00	129957	N
6:02	130329	N
6:03	130706	N
6:04	131076	N
6:04	131396	N
6:06	131767	N
6:07	132157	N
6:08	132521	N
6:09	132881	N
6:10	133234	N
6:11	133617	N
6:12	134027	N
6:13	134394	N
6:14	134740	N
6:15	135122	N
6:16	135522	N
6:17	135842	N
6:18	136187	N
6:19	136585	N
6:20	136994	N
6:21	137368	N
6:22	137752	N
6:23	138144	N
6:24	138534	N
6:25	138895	N
6:26	139274	N
6:27	139660	N
6:28	140006	N
6:29	140365	N
6:30	140743	N
6:32	141133	N
6:33	141519	N
6:34	141875	N
6:34	142053	a
6:35	142409	N
6:36	142784	N
6:37	143135	N
6:38	143453	N
6:39	143812	N
6:40	144210	N
6:41	144590	N
6:42	145005	N
6:43	145418	N
6:45	145808	N
6:46	146166	N
6:47	146528	N
6:47	146714	a
6:48	147133	N
6:49	147503	N
6:50	147879	N
6:51	148277	N
6:52	148640	N
6:53	148986	N
6:54	149375	N
6:56	149786	N
6:57	150158	N
6:58	150508	N
6:59	150881	N
7:00	151296	N
7:01	151688	N
7:02	152032	N
7:03	152404	N
7:04	152768	N
7:05	153126	N
7:06	153502	N
7:07	153881	N
7:08	154259	N
7:09	154643	N
7:10	154987	N
7:11	155327	N
7:12	155740	N
7:13	156141	N
7:14	156485	N
7:15	156859	N
7:16	157238	N
7:17	157611	N
7:18	158010	N
7:20	158422	N
7:21	158805	N
7:22	159127	N
7:23	159489	N
7:24	159911	N
7:25	160320	N
7:26	160676	N
7:27	161061	N
7:28	161433	N
7:29	161810	N
7:30	162193	N
7:31	162586	N
7:32	162968	N
7:33	163338	N
7:34	163679	N
7:35	164034	N
7:36	164443	N
7:37	164835	N
7:38	165185	N
7:39	165544	N
7:40	165926	N
7:42	166336	N
7:43	166697	N
7:44	167060	N
7:45	167443	N
7:46	167820	N
7:47	168142	N
7:48	168534	N
7:49	168943	N
7:50	169314	N
7:51	169667	N
7:52	170031	N
7:53	170381	N
7:54	170758	N
7:55	171118	N
7:56	171476	N
7:57	171847	N
7:58	172225	N
7:59	172573	N
8:00	172957	N
8:01	173335	N
8:02	173710	N
8:03	174040	N
8:04	174386	N
8:05	174744	N
8:06	175141	N
8:07	175508	N
8:08	175874	N
8:09	176264	N
8:10	176625	N
8:11	176937	N
8:12	177313	N
8:13	177714	N
8:14	178101	N
8:15	178442	N
8:16	178800	N
8:17	179181	N
8:18	179578	N
8:19	179940	N
8:20	180306	N
8:21	180669	N
8:22	181020	N
8:23	181373	N
8:24	181738	N
8:25	182113	N
8:26	182480	N
8:27	182839	N
8:28	183021	a
8:29	183387	N
8:30	183800	N
8:31	184193	N
8:32	184548	N
8:33	184915	N
8:34	185293	N
8:35	185643	N
8:36	185980	N
8:37	186330	N
8:38	186717	N
8:39	187059	N
8:40	187401	N
8:41	187773	N
8:42	188205	N
8:43	188572	N
8:44	188933	N
8:45	189318	N
8:46	189685	N
8:47	190050	N
8:48	190420	N
8:50	190804	N
8:51	191175	N
8:51	191507	N
8:52	191847	N
8:53	192236	N
8:55	192633	N
8:56	192972	N
8:57	193328	N
8:58	193686	N
8:59	194044	N
9:00	194423	N
9:01	194794	N
9:02	195178	N
9:03	195561	N
9:04	195924	N
9:05	196274	N
9:06	196700	N
9:07	197098	N
9:08	197424	N
9:09	197795	N
9:10	198180	N
9:11	198546	N
9:12	198938	N
9:13	199343	N
9:14	199719	N
9:15	200052	N
9:16	200376	N
9:17	200706	N
9:18	201128	N
9:19	201504	N
9:20	201899	N
9:21	202290	N
9:22	202650	N
9:23	203005	N
9:24	203395	N
9:26	203778	N
9:27	204159	N
9:28	204521	N
9:29	204868	N
9:30	205269	N
9:31	205666	N
9:32	206016	N
9:33	206350	N
9:34	206706	N
9:35	207057	N
9:36	207403	N
9:37	207765	N
9:38	208141	N
9:39	208528	N
9:40	208858	N
9:41	209163	N
9:42	209574	N
9:43	209975	N
9:44	210333	N
9:45	210702	N
9:46	211086	N
9:47	211456	N
9:48	211829	N
9:49	212234	N
9:50	212611	N
9:51	212996	N
9:52	213362	N
9:53	213710	N
9:54	214095	N
9:55	214487	N
9:56	214864	N
9:57	215194	N
9:58	215552	N
9:59	215948	N
10:00	216356	N
10:01	216709	N
10:03	217086	N
10:04	217479	N
10:05	217820	N
10:06	218175	N
10:07	218551	N
10:08	218920	N
10:09	219273	N
10:09	219592	N
10:10	219942	N
10:12	220333	N
10:13	220703	N
10:14	221040	N
10:14	221398	N
10:15	221757	N
10:16	222083	N
10:17	222452	N
10:19	222847	N
10:20	223224	N
10:21	223614	N
10:22	223973	N
10:23	224338	N
10:24	224751	N
10:25	225148	N
10:26	225485	N
10:27	225852	N
10:28	226227	N
10:29	226591	N
10:30	226965	N
10:31	227350	N
10:32	227723	N
10:33	228073	N
10:34	228386	N
10:35	228702	N
10:36	229091	N
10:37	229489	N
10:38	229848	N
10:39	230214	N
10:40	230580	N
10:41	230934	N
10:42	231300	N
10:43	231689	N
10:44	232063	N
10:45	232412	N
10:46	232766	N
10:47	233125	N
10:48	233538	N
10:49	233917	N
10:50	234269	N
10:51	234642	N
10:52	235007	N
10:53	235397	N
10:54	235753	N
10:55	236109	N
10:56	236487	N
10:57	236870	N
10:58	237207	N
11:00	237607	N
11:01	238027	N
11:02	238386	N
11:03	238721	N
11:04	239067	N
11:05	239423	N
11:06	239821	N
11:07	240198	N
11:08	240577	N
11:09	240944	N
11:10	241292	N
11:11	241602	N
11:12	241962	N
11:13	242312	N
11:14	242679	N
11:15	243039	N
11:16	243381	N
11:16	243711	N
11:18	244082	N
11:18	244435	N
11:19	244778	N
11:21	245164	N
11:22	245551	N
11:23	245881	N
11:24	246262	N
11:25	246665	N
11:26	247051	N
11:27	247395	N
11:28	247746	N
11:29	248105	N
11:30	248503	N
11:31	248862	N
11:32	249197	N
11:33	249562	N
11:34	249943	N
11:35	250295	N
11:36	250700	N
11:37	251098	N
11:38	251470	N
11:39	251812	N
11:40	252165	N
11:41	252528	N
11:42	252938	N
11:43	253315	N
11:44	253675	N
11:45	254033	N
11:46	254372	N
11:47	254683	N
11:48	254978	N
11:49	255258	N
11:49	255550	N
11:50	255848	N
11:51	256121	N
11:52	256383	N
11:52	256661	N
11:54	257148	N
11:55	257593	N
11:56	257932	N
11:57	258229	N
11:58	258518	N
11:58	258790	N
12:00	259226	N
12:01	259636	N
12:02	260009	N
12:03	260376	N
12:04	260772	N
12:05	261169	N
12:06	261575	N
12:07	261976	N
12:08	262369	N
12:09	262704	N
12:10	263004	N
12:11	263322	N
12:12	263685	N
12:13	264061	N
12:14	264436	N
12:15	264819	N
12:16	265178	N
12:17	265499	N
12:18	265844	N
12:19	266168	N
12:20	266518	N
12:21	266903	N
12:22	267292	N
12:23	267634	N
12:24	267959	N
12:25	268260	N
12:25	268540	N
12:26	268813	N
12:27	269081	N
12:28	269347	N
12:28	269588	N
12:29	269878	N
12:30	270248	N
12:31	270603	N
12:32	270943	N
12:33	271359	N
12:34	271751	N
12:36	272181	N
12:37	272610	N
12:38	273006	N
12:39	273412	N
12:40	273816	N
12:41	274197	N
12:42	274577	N
12:43	274935	N
12:44	275307	N
12:45	275686	N
12:46	276045	N
12:47	276457	N
12:49	276873	N
12:50	277273	N
12:51	277651	N
12:52	277972	N
12:53	278283	N
12:54	278694	N
12:55	279094	N
12:56	279450	N
12:57	279858	N
12:58	280262	N
12:59	280653	N
13:00	281044	N
13:01	281420	N
13:02	281781	N
13:03	282141	N
13:04	282482	N
13:05	282797	N
13:06	283129	N
13:07	283525	N
13:08	283927	N
13:09	284296	N
13:10	284663	N
13:11	285067	N
13:13	285488	N
13:14	285875	N
13:15	286236	N
13:16	286585	N
13:17	286937	N
13:18	287335	N
13:19	287707	N
13:20	288070	N
13:21	288450	N
13:22	288827	N
13:23	289160	N
13:24	289490	N
13:25	289857	N
13:26	290242	N
13:27	290613	N
13:28	290940	N
13:29	291276	N
13:30	291700	N
13:31	292097	N
13:32	292433	N
13:33	292776	N
13:34	293138	N
13:35	293486	N
13:36	293845	N
13:37	294212	N
13:38	294572	N
13:39	294943	N
13:40	295289	N
13:41	295629	N
13:42	295993	N
13:43	296360	N
13:44	296706	N
13:45	297039	N
13:46	297383	N
13:47	297748	N
13:48	298111	N
13:48	298428	N
13:49	298773	N
13:51	299198	N
13:52	299597	N
13:53	299953	N
13:54	300389	N
13:55	300833	N
13:56	301217	N
13:57	301534	N
13:58	301876	N
13:59	302270	N
14:00	302691	N
14:01	303057	N
14:02	303429	N
14:03	303818	N
14:04	304191	N
14:06	304618	N
14:07	305028	N
14:08	305421	N
14:09	305768	N
14:10	306085	N
14:11	306438	N
14:12	306877	N
14:13	307264	N
14:14	307641	N
14:15	308041	N
14:16	308434	N
14:17	308828	N
14:19	309258	N
14:20	309675	N
14:21	310057	N
14:22	310398	N
14:23	310740	N
14:24	311143	N
14:25	311544	N
14:26	311915	N
14:27	312255	N
14:28	312597	N
14:29	312958	N
14:30	313376	N
14:31	313731	N
14:32	314065	N
14:33	314452	N
14:34	314833	N
14:35	315188	N
14:36	315585	N
14:37	315996	N
14:38	316364	N
14:39	316691	N
14:40	317046	N
14:41	317427	N
14:42	317789	N
14:43	318121	N
14:44	318473	N
14:45	318836	N
14:46	319163	N
14:47	319521	N
14:48	319922	N
14:49	320297	N
14:50	320631	N
14:51	320974	N
14:52	321320	N
14:53	321658	N
14:54	322000	N
14:55	322354	N
14:56	322701	N
14:57	323065	N
14:58	323379	N
14:59	323687	N
15:00	324029	N
15:01	324374	N
15:01	324698	N
15:02	325067	N
15:04	325442	N
15:04	325796	N
15:05	326158	N
15:07	326549	N
15:08	326933	N
15:09	327329	N
15:10	327675	N
15:11	327993	N
15:12	328387	N
15:13	328814	N
15:14	329188	N
15:15	329548	N
15:16	329939	N
15:17	330315	N
15:18	330667	N
15:19	331041	N
15:20	331431	N
15:21	331770	N
15:22	332082	N
15:23	332405	N
15:24	332782	N
15:25	333106	N
15:26	333432	N
15:27	333857	N
15:28	334261	N
15:29	334625	N
15:30	335043	N
15:31	335428	N
15:32	335756	N
15:33	336063	N
15:34	336399	N
15:35	336759	N
15:36	337115	N
15:37	337486	N
15:38	337866	N
15:39	338225	N
15:40	338549	N
15:41	338896	N
15:42	339306	N
15:43	339687	N
15:44	340013	N
15:45	340327	N
15:46	340654	N
15:47	340987	N
15:48	341331	N
15:49	341686	N
15:50	342035	N
15:51	342417	N
15:52	342756	N
15:53	343092	N
15:54	343501	N
15:55	343897	N
15:56	344234	N
15:57	344562	N
15:58	344888	N
15:58	345226	N
15:59	345572	N
16:00	345915	N
16:01	346279	N
16:02	346678	N
16:03	347016	N
16:04	347335	N
16:05	347731	N
16:06	348090	N
16:07	348392	N
16:08	348710	N
16:09	349083	N
16:10	349446	N
16:11	349792	N
16:12	350198	N
16:13	350584	N
16:14	350934	N
16:15	351243	N
16:16	351551	N
16:17	351927	N
16:18	352355	N
16:19	352734	N
16:20	353114	N
16:21	353485	N
16:22	353812	N
16:23	354140	N
16:24	354469	N
16:25	354788	N
16:26	355097	N
16:27	355391	N
16:27	355661	N
16:28	355916	N
16:29	356214	N
16:30	356561	N
16:31	356972	N
16:32	357356	N
16:33	357752	N
16:34	358155	N
16:35	358556	N
16:37	358983	N
16:38	359384	N
16:39	359778	N
16:40	360133	N
16:41	360526	N
16:42	360930	N
16:43	361302	N
16:44	361640	N
16:45	361958	N
16:46	362302	N
16:47	362680	N
16:48	363088	N
16:49	363466	N
16:50	363819	N
16:51	364209	N
16:52	364554	N
16:53	364909	N
16:54	365211	N
16:55	365494	N
16:56	365795	N
16:57	366138	N
16:57	366414	N
16:58	366681	N
16:59	366982	N
17:00	367475	N
17:01	367902	N
17:03	368332	N
17:04	368750	N
17:05	369155	N
17:06	369589	N
17:07	369978	N
17:08	370371	N
17:09	370765	N
17:11	371161	N
17:12	371577	N
17:13	371964	N
17:14	372367	N
17:15	372763	N
17:16	373142	N
17:17	373522	N
17:18	373944	N
17:19	374344	N
17:20	374713	N
17:21	375053	N
17:22	375378	N
17:23	375781	N
17:24	376189	N
17:25	376520	N
17:26	376896	N
17:28	377302	N
17:29	377683	N
17:30	378030	N
17:31	378378	N
17:32	378730	N
17:33	379107	N
17:34	379459	N
17:35	379810	N
17:36	380246	N
17:37	380639	N
17:38	380994	N
17:39	381349	N
17:40	381729	N
17:41	382113	N
17:42	382507	N
17:43	382892	N
17:44	383277	N
17:45	383673	N
17:46	384027	N
17:47	384394	N
17:48	384788	N
17:49	385181	N
17:50	385553	N
17:51	385906	N
17:52	386268	N
17:54	386662	N
17:55	387024	N
17:55	387353	N
17:57	387748	N
17:58	388131	N
17:59	388481	N
18:00	388862	N
18:01	389236	N
18:02	389628	N
18:03	389983	N
18:04	390326	N
18:05	390699	N
18:06	391116	N
18:07	391486	N
18:08	391795	N
18:09	392153	N
18:10	392524	N
18:11	392892	N
18:12	393288	N
18:13	393678	N
18:14	394046	N
18:15	394359	N
18:16	394691	N
18:17	395046	N
18:18	395460	N
18:19	395811	N
18:20	396180	N
18:21	396575	N
18:22	396936	N
18:23	397292	N
18:24	397670	N
18:25	398052	N
18:26	398392	N
18:27	398697	N
18:28	399045	N
18:29	399437	N
18:30	399840	N
18:31	400203	N
18:32	400574	N
18:33	400942	N
18:34	401267	N
18:35	401650	N
18:36	402056	N
18:37	402432	N
18:38	402786	N
18:39	403166	N
18:40	403529	N
18:41	403915	N
18:43	404287	N
18:44	404659	N
18:45	405040	N
18:46	405394	N
18:46	405709	N
18:48	406082	N
18:49	406491	N
18:50	406900	N
18:51	407281	N
18:52	407671	N
18:53	408062	N
18:54	408480	N
18:55	408880	N
18:56	409281	N
18:57	409633	N
18:58	409978	N
18:59	410389	N
19:00	410758	N
19:02	411121	N
19:02	411470	N
19:03	411813	N
19:04	412108	N
19:05	412473	N
19:06	412867	N
19:07	413233	N
19:08	413563	N
19:09	413903	N
19:10	414241	N
19:11	414576	N
19:12	414891	N
19:13	415197	N
19:14	415500	N
19:15	415809	N
19:15	416091	N
19:16	416386	N
19:17	416728	N
19:18	417106	N
19:19	417432	N
19:20	417742	N
19:21	418077	N
19:22	418433	N
19:23	418739	N
19:24	419054	N
19:24	419380	N
19:25	419710	N
19:26	420003	N
19:27	420294	N
19:28	420618	N
19:29	420999	N
19:30	421387	N
19:31	421787	N
19:32	422175	N
19:33	422530	N
19:34	422910	N
19:35	423332	N
19:36	423708	N
19:37	424072	N
19:39	424468	N
19:40	424826	N
19:41	425189	N
19:42	425597	N
19:43	425977	N
19:44	426330	N
19:45	426703	N
19:46	427074	N
19:47	427400	N
19:48	427765	N
19:49	428198	N
19:50	428605	N
19:51	429003	N
19:52	429379	N
19:53	429809	N
19:55	430227	N
19:56	430615	N
19:57	431022	N
19:58	431429	N
19:59	431823	N
20:00	432271	N
20:01	432662	N
20:02	433025	N
20:03	433421	N
20:05	433816	N
20:06	434210	N
20:07	434600	N
20:08	434970	N
20:09	435315	N
20:10	435698	N
20:11	436088	N
20:12	436472	N
20:13	436837	N
20:14	437198	N
20:15	437569	N
20:16	437929	N
20:17	438332	N
20:18	438704	N
20:19	439063	N
20:20	439400	N
20:21	439736	N
20:22	440051	N
20:23	440407	N
20:24	440838	N
20:25	441240	N
20:26	441611	N
20:27	441974	N
20:28	442294	N
20:29	442617	N
20:30	442954	N
20:31	443297	N
20:32	443594	N
20:33	443896	N
20:33	444222	N
20:34	444566	N
20:35	444921	N
20:36	445255	N
20:37	445589	N
20:38	445924	N
20:39	446243	N
20:40	446541	N
20:41	446858	N
20:42	447211	N
20:43	447522	N
20:43	447797	N
20:44	448072	N
20:45	448357	N
20:46	448764	N
20:47	449176	N
20:48	449554	N
20:49	449930	N
20:50	450297	N
20:51	450622	N
20:52	450910	N
20:53	451234	N
20:54	451666	N
20:55	452052	N
20:56	452355	N
20:57	452656	N
20:58	452992	N
20:59	453364	N
21:00	453769	N
21:01	454134	N
21:02	454471	N
21:03	454845	N
21:04	455212	N
21:05	455519	N
21:06	455836	N
21:07	456180	N
21:08	456537	N
21:09	456902	N
21:09	457077	a
21:10	457417	N
21:11	457784	N
21:12	458149	N
21:13	458472	N
21:14	458792	N
21:15	459141	N
21:16	459471	N
21:17	459766	N
21:18	460093	N
21:18	460437	N
21:19	460793	N
21:20	461130	N
21:21	461470	N
21:22	461832	N
21:23	462231	N
21:24	462581	N
21:25	462945	N
21:27	463338	N
21:28	463722	N
21:29	464084	N
21:30	464519	N
21:31	464921	N
21:32	465285	N
21:33	465668	N
21:34	466050	N
21:35	466438	N
21:36	466855	N
21:37	467248	N
21:38	467604	N
21:39	467990	N
21:41	468377	N
21:42	468756	N
21:43	469160	N
21:44	469563	N
21:45	469910	N
21:46	470221	N
21:47	470614	N
21:48	471057	N
21:49	471422	N
21:50	471727	N
21:51	472069	N
21:52	472432	N
21:53	472799	N
21:54	473171	N
21:55	473548	N
21:56	473927	N
21:57	474269	N
21:58	474592	N
21:59	474939	N
22:00	475317	N
22:01	475669	N
22:02	476036	N
22:03	476411	N
22:04	476756	N
22:05	477062	N
22:06	477431	N
22:07	477806	N
22:08	478142	N
22:09	478467	N
22:10	478814	N
22:11	479194	N
22:12	479588	N
22:13	479959	N
22:14	480325	N
22:15	480698	N
22:16	481049	N
22:16	481219	a
22:17	481614	N
22:18	482033	N
22:20	482407	N
22:20	482744	N
22:22	483128	N
22:23	483503	N
22:24	483858	N
22:25	484234	N
22:26	484571	N
22:26	484912	N
22:27	485217	N
22:28	485519	N
22:29	485881	N
22:30	486246	N
22:31	486559	N
22:32	486879	N
22:33	487208	N
22:34	487529	N
22:35	487815	N
22:35	488137	N
22:36	488482	N
22:37	488776	N
22:38	489054	N
22:39	489379	N
22:40	489763	N
22:41	490149	N
22:42	490499	N
22:43	490889	N
22:44	491275	N
22:45	491611	N
22:46	491938	N
22:47	492297	N
22:48	492682	N
22:49	493016	N
22:50	493375	N
22:51	493738	N
22:52	494079	N
22:53	494437	N
22:54	494819	N
22:55	495174	N
22:56	495510	N
22:57	495852	N
22:58	496174	N
22:59	496489	N
23:00	496879	N
23:01	497232	N
23:02	497558	N
23:03	497931	N
23:04	498287	N
23:05	498615	N
23:06	499008	N
23:07	499403	N
23:08	499761	N
23:09	500111	N
23:10	500468	N
23:11	500803	N
23:12	501186	N
23:13	501571	N
23:14	501936	N
23:15	502274	N
23:16	502630	N
23:17	502986	N
23:18	503336	N
23:19	503692	N
23:20	504052	N
23:21	504410	N
23:22	504778	N
23:23	505152	N
23:24	505527	N
23:25	505892	N
23:26	506270	N
23:27	506619	N
23:28	506952	N
23:29	507316	N
23:30	507718	N
23:31	508086	N
23:32	508448	N
23:33	508824	N
23:34	509160	N
23:35	509510	N
23:36	509898	N
23:37	510261	N
23:38	510639	N
23:39	510985	N
23:40	511361	N
23:41	511758	N
23:42	512120	N
23:43	512473	N
23:44	512840	N
23:45	513184	N
23:46	513485	N
23:47	513836	N
23:48	514265	N
23:49	514604	N
23:50	514926	N
23:51	515271	N
23:52	515631	N
23:53	515921	N
23:53	516236	N
23:54	516575	N
23:55	516907	N
23:56	517209	N
23:57	517551	N
23:58	517896	N
23:59	518252	N
24:00	518604	N
24:01	518959	N
24:02	519284	N
24:03	519588	N
24:04	519934	N
24:05	520260	N
24:06	520625	N
24:07	520978	N
24:08	521327	N
24:09	521645	N
24:09	521935	N
24:10	522213	N
24:11	522539	N
24:12	522860	N
24:13	523224	N
24:14	523603	N
24:15	523945	N
24:16	524256	N
24:17	524600	N
24:18	524995	N
24:19	525349	N
24:20	525673	N
24:21	526001	N
24:21	526318	N
24:22	526598	N
24:23	526924	N
24:24	527262	N
24:25	527608	N
24:26	527900	N
24:27	528182	N
24:27	528444	N
24:28	528689	N
24:29	528930	N
24:30	529206	N
24:31	529663	N
24:32	530050	N
24:33	530388	N
24:34	530756	N
24:35	531151	N
24:36	531543	N
24:37	531882	N
24:38	532230	N
24:39	532590	N
24:40	532953	N
24:41	533349	N
24:42	533772	N
24:43	534163	N
24:44	534538	N
24:45	534908	N
24:46	535276	N
24:47	535636	N
24:48	536012	N
24:49	536390	N
24:51	536786	N
24:52	537149	N
24:53	537507	N
24:54	537891	N
24:55	538220	N
24:55	538555	N
24:57	538927	N
24:58	539288	N
24:58	539634	N
25:00	540056	N
25:01	540436	N
25:02	540789	N
25:03	541145	N
25:04	541462	N
25:04	541744	N
25:05	542107	N
25:06	542491	N
25:07	542802	N
25:08	543104	N
25:09	543437	N
25:10	543789	N
25:11	544101	N
25:12	544462	N
25:13	544831	N
25:14	545132	N
25:15	545428	N
25:15	545751	N
25:17	546138	N
25:18	546553	N
25:19	546953	N
25:20	547339	N
25:21	547690	N
25:22	548054	N
25:23	548426	N
25:24	548837	N
25:25	549204	N
25:26	549529	N
25:27	549888	N
25:28	550253	N
25:29	550618	N
25:30	551016	N
25:31	551369	N
25:32	551673	N
25:33	552000	N
25:34	552355	N
25:35	552669	N
25:36	553008	N
25:37	553419	N
25:38	553816	N
25:39	554200	N
25:40	554582	N
25:41	554968	N
25:42	555343	N
25:43	555708	N
25:44	556041	N
25:45	556356	N
25:46	556664	N
25:47	556959	N
25:48	557280	N
25:48	557612	N
25:49	557951	N
25:50	558262	N
25:51	558589	N
25:52	558951	N
25:53	559289	N
25:54	559612	N
25:55	559956	N
25:56	560270	N
25:57	560573	N
25:58	560971	N
25:59	561362	N
26:00	561738	N
26:01	562099	N
26:02	562458	N
26:03	562784	N
26:04	563133	N
26:05	563480	N
26:06	563807	N
26:07	564136	N
26:07	564435	N
26:08	564762	N
26:09	565063	N
26:10	565388	N
26:11	565753	N
26:12	566143	N
26:13	566490	N
26:14	566827	N
26:15	567160	N
26:16	567488	N
26:17	567770	N
26:18	568084	N
26:18	568403	N
26:19	568722	N
26:20	569035	N
26:21	569311	N
26:22	569587	N
26:23	569949	N
26:24	570370	N
26:25	570711	N
26:26	571006	N
26:26	571303	N
26:27	571638	N
26:28	571938	N
26:29	572245	N
26:30	572610	N
26:31	572998	N
26:32	573357	N
26:33	573656	N
26:34	573948	N
26:35	574270	N
26:36	574647	N
26:37	574970	N
26:37	575274	N
26:38	575634	N
26:39	575999	N
26:40	576349	N
26:41	576706	N
26:42	577062	N
26:43	577398	N
26:44	577725	N
26:45	578012	N
26:46	578289	N
26:47	578574	N
26:48	578938	N
26:49	579314	N
26:50	579639	N
26:51	579970	N
26:52	580323	N
26:53	580683	N
26:54	581040	N
26:54	581386	N
26:55	581743	N
26:56	582107	N
26:57	582419	N
26:58	582725	N
26:59	583094	N
27:00	583456	N
27:01	583782	N
27:02	584099	N
27:03	584452	N
27:04	584829	N
27:05	585155	N
27:06	585498	N
27:07	585855	N
27:08	586223	N
27:09	586598	N
27:10	586961	N
27:11	587351	N
27:12	587761	N
27:13	588157	N
27:14	588519	N
27:15	588883	N
27:16	589244	N
27:17	589622	N
27:18	590008	N
27:20	590403	N
27:21	590810	N
27:22	591189	N
27:23	591592	N
27:24	592012	N
27:25	592414	N
27:26	592805	N
27:27	593194	N
27:28	593552	N
27:29	593966	N
27:31	594369	N
27:32	594760	N
27:33	595139	N
27:34	595487	N
27:35	595854	N
27:36	596268	N
27:37	596637	N
27:38	596996	N
27:39	597399	N
27:40	597762	N
27:41	598087	N
27:42	598448	N
27:43	598829	N
27:44	599159	N
27:45	599449	N
27:45	599757	N
27:47	600150	N
27:48	600551	N
27:49	600900	N
27:50	601257	N
27:51	601650	N
27:52	602012	N
27:53	602358	N
27:54	602735	N
27:55	603095	N
27:56	603420	N
27:57	603743	N
27:58	604091	N
27:58	604418	N
27:59	604779	N
28:00	605155	N
28:02	605531	N
28:03	605905	N
28:04	606243	N
28:05	606607	N
28:06	607023	N
28:07	607393	N
28:08	607755	N
28:09	608118	N
28:10	608467	N
28:11	608760	N
28:11	609080	N
28:12	609423	N
28:13	609748	N
28:14	610043	N
28:15	610337	N
28:16	610624	N
28:17	610925	N
28:17	611223	N
28:18	611508	N
28:19	611776	N
28:20	612037	N
28:20	612354	N
28:21	612635	N
28:22	612939	N
28:23	613300	N
28:24	613699	N
28:25	614041	N
28:26	614326	N
28:27	614633	N
28:28	614958	N
28:29	615304	N
28:30	615673	N
28:31	615994	N
28:32	616337	N
28:33	616705	N
28:34	617078	N
28:35	617405	N
28:36	617803	N
28:37	618182	N
28:38	618525	N
28:39	618866	N
28:40	619220	N
28:41	619602	N
28:42	620012	N
28:43	620418	N
28:44	620807	N
28:45	621182	N
28:46	621566	N
28:47	621953	N
28:48	622342	N
28:49	622688	N
28:50	623028	N
28:51	623375	N
28:52	623741	N
28:53	624089	N
28:54	624459	N
28:55	624835	N
28:56	625162	N
28:57	625489	N
28:58	625844	N
28:59	626261	N
29:00	626643	N
29:01	626971	N
29:02	627307	N
29:03	627594	N
29:04	627863	N
29:04	628109	N
29:05	628385	N
29:06	628884	N
29:07	629278	N
29:09	629673	N
29:10	630077	N
29:11	630479	N
29:12	630826	N
29:13	631165	N
29:14	631556	N
29:15	631933	N
29:16	632276	N
29:17	632559	N
29:18	632928	N
29:19	633345	N
29:20	633744	N
29:21	634100	N
29:22	634441	N
29:23	634808	N
29:24	635192	N
29:25	635547	N
29:26	635862	N
29:27	636204	N
29:28	636585	N
29:29	636962	N
29:30	637326	N
29:31	637701	N
29:32	638070	N
29:33	638426	N
29:34	638741	N
29:35	639073	N
29:36	639473	N
29:37	639858	N
29:38	640180	N
29:39	640509	N
29:40	640849	N
29:41	641216	N
29:42	641627	N
29:43	641959	N
29:44	642270	N
29:45	642609	N
29:45	642927	N
29:46	643221	N
29:47	643583	N
29:48	643981	N
29:49	644345	N
29:50	644682	N
29:51	645051	N
29:52	645423	N
29:53	645805	N
29:54	646186	N
29:56	646577	N
29:57	646921	N
29:57	647215	N
29:58	647501	N
29:59	647807	N
30:00	648142	N
30:01	648592	N
30:02	649008	N
30:03	649364	N
30:04	649675	N
30:05	649994	N
