0:00	310	N
0:02	726	N
0:03	1143	N
0:04	1553	N
0:05	1965	N
0:06	2358	N
0:07	2742	N
0:08	3166	N
0:09	3568	N
0:11	3961	N
0:12	4352	N
0:13	4728	N
0:14	5140	N
0:15	5547	N
0:16	5938	N
0:17	6327	N
0:18	6710	N
0:19	7091	N
0:20	7506	N
0:21	7905	N
0:23	8296	N
0:24	8677	N
0:25	9061	N
0:26	9474	N
0:27	9897	N
0:28	10296	N
0:29	10697	N
0:30	11109	N
0:31	11515	N
0:33	11946	N
0:34	12362	N
0:35	12755	N
0:36	13156	N
0:37	13549	N
0:38	13956	N
0:39	14378	N
0:41	14767	N
0:42	15156	N
0:43	15539	N
0:44	15957	N
0:45	16362	N
0:46	16767	N
0:47	17150	N
0:48	17532	N
0:49	17929	N
0:50	18324	N
0:52	18724	N
0:53	19115	N
0:54	19478	N
0:55	19843	N
0:56	20244	N
0:57	20632	N
0:58	21024	N
0:59	21399	N
1:00	21770	N
1:01	22140	N
1:02	22545	N
1:03	22937	N
1:04	23331	N
1:05	23704	N
1:06	24076	N
1:07	24470	N
1:09	24870	N
1:10	25257	N
1:11	25647	N
1:12	26019	N
1:13	26377	N
1:14	26781	N
1:15	27169	N
1:16	27550	N
1:17	27933	N
1:18	28296	N
1:19	28666	N
1:20	29065	N
1:21	29455	N
1:22	29835	N
1:23	30211	N
1:24	30569	N
1:25	30765	V
1:27	31349	N
1:28	31731	N
1:29	32123	N
1:30	32494	N
1:31	32854	N
1:32	33248	N
1:33	33649	N
1:34	34021	N
1:35	34404	N
1:36	34782	N
1:37	35148	N
1:38	35551	N
1:39	35951	N
1:40	36334	N
1:42	36721	N
1:43	37090	N
1:44	37490	N
1:45	37893	N
1:46	38287	N
1:47	38676	N
1:48	39066	N
1:49	39443	N
1:50	39851	N
1:51	40254	N
1:52	40649	N
1:53	41027	N
1:55	41414	N
1:56	41823	N
1:57	42228	N
1:58	42629	N
1:59	43019	N
2:00	43414	N
2:01	43813	N
2:02	44221	N
2:03	44630	N
2:05	45030	N
2:06	45411	N
2:06	45606	V
2:08	46201	N
2:09	46615	N
2:10	47010	N
2:11	47404	N
2:12	47786	N
2:13	48188	N
2:14	48589	N
2:16	48985	N
2:17	49379	N
2:18	49760	N
2:19	50133	N
2:20	50544	N
2:21	50939	N
2:22	51327	N
2:23	51723	N
2:24	52097	N
2:25	52497	N
2:26	52900	N
2:28	53305	N
2:29	53697	N
2:30	54088	N
2:31	54459	N
2:32	54872	N
2:33	55278	N
2:34	55661	N
2:35	56055	N
2:36	56433	N
2:37	56811	N
2:38	57223	N
2:40	57611	N
2:41	57990	N
2:42	58377	N
2:43	58736	N
2:44	59143	N
2:45	59545	N
2:46	59927	N
2:47	60311	N
2:48	60695	N
2:49	61077	N
2:50	61488	N
2:51	61889	N
2:52	62277	N
2:54	62667	N
2:55	63046	N
2:56	63450	N
2:57	63865	N
2:58	64257	N
2:59	64642	N
3:00	65043	N
3:01	65428	N
3:02	65843	N
3:04	66252	N
3:05	66633	N
3:06	67027	N
3:07	67402	N
3:08	67809	N
3:09	68223	N
3:10	68607	N
3:11	68994	N
3:12	69378	N
3:13	69598	V
3:14	70156	N
3:15	70555	N
3:17	70935	N
3:18	71311	N
3:19	71666	N
3:20	72072	N
3:21	72457	N
3:22	72853	N
3:23	73229	N
3:24	73609	N
3:25	73986	N
3:26	74395	N
3:27	74795	N
3:28	75199	N
3:29	75589	N
3:31	75963	N
3:32	76389	N
3:33	76795	N
3:34	77197	N
3:35	77597	N
3:36	77977	N
3:37	78367	N
3:38	78779	N
3:39	79176	N
3:41	79576	N
3:42	79950	N
3:43	80322	N
3:43	80510	V
3:45	81113	N
3:46	81494	N
3:47	81878	N
3:48	82243	N
3:49	82608	N
3:50	83001	N
3:51	83389	N
3:52	83756	N
3:53	84131	N
3:54	84494	N
3:55	84866	N
3:56	85266	N
3:57	85654	N
3:58	86032	N
4:00	86416	N
4:01	86782	N
4:02	87131	V
4:03	87598	N
4:04	87990	N
4:05	88388	N
4:06	88768	N
4:07	88951	V
4:08	89347	J
4:09	89909	N
4:10	90299	N
4:11	90698	N
4:12	90920	V
4:14	91464	N
4:15	91875	N
4:16	92272	N
4:17	92660	N
4:18	92961	V
4:19	93430	N
4:20	93842	N
4:21	94260	N
4:22	94648	N
4:23	94869	V
4:25	95418	N
4:26	95825	N
4:27	96235	N
4:28	96629	N
4:29	97013	N
4:30	97406	N
4:31	97780	N
4:32	98190	N
4:33	98591	N
4:34	98983	N
4:36	99363	N
4:37	99739	N
4:38	100144	N
4:39	100525	V
4:40	100946	N
4:41	101335	N
4:42	101721	N
4:43	102111	N
4:44	102522	N
4:45	102926	N
4:47	103328	N
4:47	103668	V
4:49	104061	N
4:50	104522	N
4:51	104925	N
4:52	105321	N
4:53	105514	V
4:54	106075	N
4:55	106483	N
4:56	106893	N
4:58	107283	N
4:58	107503	V
5:00	108047	N
5:01	108417	N
5:02	108831	N
5:03	109220	N
5:03	109405	V
5:05	109957	N
5:06	110334	N
5:07	110691	N
5:08	111089	N
5:09	111470	N
5:10	111837	N
5:11	112204	N
5:12	112562	N
5:13	112919	N
5:14	113312	N
5:15	113684	N
5:16	114059	N
5:17	114434	N
5:18	114800	N
5:19	115180	N
5:21	115584	N
5:22	115955	N
5:23	116335	N
5:24	116704	N
5:25	117067	N
5:26	117456	N
5:27	117854	N
5:28	118234	N
5:29	118613	N
5:30	119001	N
5:31	119374	N
5:32	119786	N
5:33	120191	N
5:34	120569	N
5:35	120949	N
5:36	121319	N
5:38	121706	N
5:39	122093	V
5:39	122248	V
5:41	122818	N
5:42	123190	N
5:43	123540	N
5:44	123919	N
5:45	124309	N
5:46	124668	N
5:47	125035	N
5:48	125395	N
5:49	125756	N
5:50	126138	N
5:51	126529	N
5:52	126903	N
5:53	127269	N
5:54	127640	N
5:55	128017	N
5:56	128402	N
5:57	128796	N
5:58	129172	N
5:59	129531	N
6:00	129903	N
6:01	130288	N
6:03	130682	N
6:03	131012	V
6:05	131454	N
6:06	131827	N
6:07	132186	N
6:08	132586	N
6:09	132960	F
6:10	133355	N
6:11	133730	N
6:12	133961	V
6:13	134476	N
6:14	134880	N
6:15	135264	N
6:16	135649	N
6:17	136026	N
6:18	136380	N
6:19	136774	N
6:21	137175	N
6:22	137552	N
6:23	137951	N
6:24	138326	N
6:25	138701	N
6:26	139105	N
6:27	139509	N
6:28	139892	N
6:29	140282	N
6:30	140604	V
6:31	141046	N
6:32	141456	N
6:34	141848	N
6:35	142229	N
6:36	142611	N
6:37	142976	N
6:38	143376	N
6:39	143784	N
6:40	144168	N
6:41	144556	N
6:42	144946	N
6:43	145324	N
6:44	145555	V
6:45	146136	N
6:47	146528	N
6:48	146925	N
6:49	147292	N
6:49	147519	V
6:51	148102	N
6:52	148496	N
6:53	148878	N
6:54	149259	N
6:55	149533	V
6:56	150041	N
6:57	150454	N
6:58	150830	N
7:00	151208	N
7:01	151577	N
7:02	151964	N
7:03	152357	N
7:04	152743	N
7:05	153113	N
7:06	153494	N
7:07	153866	N
7:08	154258	N
7:09	154658	N
7:10	154996	V
7:11	155412	N
7:12	155789	N
7:13	156160	N
7:14	156558	N
7:15	156946	N
7:16	157235	|
7:17	157328	N
7:18	157701	N
7:19	158079	N
7:20	158479	N
7:21	158886	N
7:22	159270	N
7:23	159666	N
7:24	160048	N
7:25	160254	V
7:26	160847	N
7:27	161261	N
7:29	161669	N
7:30	162059	N
7:31	162454	N
7:32	162878	N
7:33	163299	N
7:34	163705	N
7:35	164106	N
7:36	164345	V
7:38	164923	N
7:39	165348	N
7:40	165749	N
7:41	166152	N
7:42	166542	N
7:43	166935	N
7:44	167364	N
7:46	167761	N
7:47	168157	N
7:48	168559	N
7:49	168916	F
7:50	169361	N
7:51	169770	N
7:52	170161	N
7:53	170551	N
7:54	170929	N
7:55	171218	V
7:57	171737	N
7:58	172124	N
7:59	172516	N
8:00	172893	N
8:01	173270	N
8:02	173670	N
8:03	174082	N
8:04	174465	N
8:05	174846	N
8:06	175240	N
8:07	175635	N
8:09	176048	N
8:10	176454	N
8:11	176851	N
8:11	177072	V
8:13	177633	N
8:14	178060	N
8:15	178483	N
8:16	178871	N
8:17	179092	V
8:18	179637	N
8:20	180054	N
8:21	180461	N
8:22	180835	N
8:23	181230	N
8:24	181604	N
8:25	181992	N
8:26	182387	N
8:27	182792	N
8:28	183170	N
8:29	183463	V
8:30	183904	N
8:31	184305	N
8:33	184702	N
8:34	185091	N
8:34	185323	V
8:36	185841	N
8:36	186025	V
8:38	186594	N
8:39	186990	N
8:40	187367	N
8:41	187734	N
8:42	188098	N
8:43	188463	N
8:44	188860	N
8:45	189250	N
8:46	189638	N
8:47	190016	N
8:48	190379	N
8:49	190785	N
8:51	191190	N
8:52	191579	N
8:53	191973	N
8:54	192351	N
8:55	192718	N
8:56	193133	N
8:57	193369	V
8:58	193916	N
8:59	194303	N
9:00	194667	N
9:01	195057	N
9:02	195463	N
9:03	195825	N
9:05	196242	N
9:06	196628	N
9:07	196998	N
9:08	197415	N
9:09	197826	N
9:10	198214	N
9:11	198614	N
9:12	198993	N
9:13	199389	N
9:15	199802	N
9:16	200181	F
9:17	200582	N
9:18	200973	N
9:19	201344	N
9:20	201753	N
9:21	202152	N
9:22	202538	N
9:23	202915	N
9:24	203123	V
9:25	203671	N
9:26	204085	N
9:28	204481	N
9:29	204866	N
9:29	205036	V
9:30	205200	~
9:31	205596	N
9:32	205998	N
9:33	206385	N
9:34	206762	N
9:34	206945	~
9:35	207120	N
9:36	207482	N
9:37	207842	N
9:38	208207	N
9:39	208584	N
9:40	208946	N
9:41	209305	N
9:42	209656	N
9:43	210003	N
9:44	210371	N
9:45	210723	N
9:46	211088	N
9:47	211436	N
9:48	211779	N
9:49	212126	N
9:50	212496	N
9:51	212867	N
9:52	213220	N
9:53	213571	N
9:54	213906	N
9:55	214256	N
9:56	214615	N
9:57	214974	N
9:58	215327	N
9:59	215682	N
10:00	216019	N
10:00	216353	N
10:01	216697	N
10:02	217059	N
10:03	217404	N
10:04	217735	N
10:05	218071	N
10:06	218394	N
10:07	218736	N
10:08	219084	N
10:09	219422	N
10:10	219752	N
10:11	220089	N
10:12	220415	N
10:13	220729	N
10:14	221089	N
10:15	221435	N
10:16	221769	N
10:16	222110	N
10:17	222439	N
10:18	222758	N
10:19	223105	N
10:20	223462	N
10:21	223803	N
10:22	224129	N
10:23	224461	N
10:24	224792	N
10:25	225105	N
10:26	225467	N
10:27	225806	N
10:28	226130	N
10:29	226460	N
10:29	226754	N
10:30	227088	N
10:31	227415	N
10:32	227765	N
10:33	228104	N
10:34	228421	N
10:35	228744	N
10:36	229072	N
10:37	229385	N
10:38	229722	N
10:39	230074	N
10:40	230401	N
10:40	230731	N
10:41	231056	N
10:42	231385	N
10:43	231723	N
10:44	232068	N
10:45	232422	N
10:46	232755	N
10:47	233083	N
10:48	233415	N
10:49	233751	N
10:50	234098	N
10:51	234457	N
10:52	234797	N
10:53	235141	N
10:54	235472	N
10:55	235804	N
10:56	236174	N
10:57	236541	N
10:58	236910	N
10:59	237261	N
11:00	237615	N
11:00	237949	N
11:02	238338	N
11:03	238704	N
11:04	239068	N
11:04	239232	~
11:05	239428	N
11:06	239769	N
11:06	240107	N
11:07	240479	N
11:08	240663	~
11:09	240843	N
11:09	241191	N
11:10	241545	N
11:11	241882	N
11:12	242210	N
11:13	242586	N
11:14	242948	N
11:15	243306	N
11:16	243661	N
11:17	244010	N
11:18	244351	N
11:19	244720	N
11:20	245106	N
11:21	245471	N
11:22	245845	N
11:23	246201	N
11:24	246548	N
11:25	246937	N
11:27	247325	N
11:28	247684	N
11:29	248067	N
11:30	248426	N
11:31	248776	N
11:32	249158	N
11:33	249541	N
11:34	249899	N
11:35	250269	N
11:36	250621	N
11:37	250965	N
11:38	251340	N
11:39	251716	N
11:39	251900	+
11:39	251975	A
11:40	252154	A
11:40	252336	A
11:41	252507	A
11:42	252791	A
11:42	252944	V
11:43	253286	J
11:44	253651	+
11:44	253746	N
11:45	254124	N
11:46	254485	N
11:47	254848	N
11:48	255189	N
11:49	255558	N
11:50	255938	N
11:51	256307	N
11:52	256671	N
11:53	257035	N
11:54	257379	N
11:56	257770	N
11:57	258151	N
11:58	258519	N
11:59	258878	N
12:00	259242	N
12:01	259591	N
12:02	259968	N
12:03	260351	N
12:04	260722	N
12:05	261082	N
12:06	261451	N
12:07	261812	N
12:08	262198	N
12:09	262587	N
12:10	262966	N
12:11	263333	N
12:12	263603	V
12:13	264093	N
12:14	264484	N
12:15	264870	N
12:16	265244	N
12:17	265592	F
12:18	265965	N
12:19	266355	N
12:20	266737	N
12:21	267105	N
12:23	267483	N
12:24	267844	N
12:25	268211	N
12:25	268524	V
12:27	268999	N
12:28	269383	N
12:29	269764	N
12:30	270133	N
12:31	270517	N
12:32	270916	N
12:33	271145	V
12:34	271681	N
12:35	272055	N
12:36	272412	N
12:37	272803	N
12:38	273187	N
12:39	273565	N
12:40	273932	N
12:41	274293	N
12:42	274624	N
12:43	275002	N
12:44	275373	N
12:45	275732	N
12:46	276083	N
12:47	276423	N
12:48	276747	N
12:49	277112	N
12:50	277479	N
12:51	277814	N
12:52	278153	N
12:53	278493	N
12:54	278823	N
12:55	279155	N
12:56	279519	N
12:57	279873	N
12:58	280219	N
12:59	280555	N
13:00	280894	N
13:01	281219	N
13:02	281589	N
13:03	281949	N
13:04	282286	N
13:05	282634	N
13:06	282982	N
13:06	283314	N
13:08	283682	N
13:09	284061	N
13:10	284418	N
13:11	284773	N
13:12	285127	N
13:12	285465	N
13:13	285829	N
13:15	286209	N
13:15	286557	N
13:16	286914	N
13:17	287260	N
13:18	287598	N
13:19	287961	N
13:20	288337	N
13:21	288688	N
13:22	289032	N
13:23	289372	N
13:24	289707	N
13:25	290061	N
13:26	290425	N
13:27	290780	N
13:28	291130	N
13:29	291470	N
13:30	291815	N
13:31	292172	N
13:32	292531	N
13:33	292909	N
13:34	293258	N
13:35	293601	N
13:36	293953	N
13:37	294309	N
13:38	294676	N
13:39	295044	N
13:40	295403	N
13:41	295749	N
13:42	296093	N
13:43	296374	V
13:44	296833	N
13:45	297213	N
13:46	297582	N
13:47	297936	N
13:48	298295	N
13:49	298650	N
13:50	299043	N
13:51	299411	N
13:52	299778	N
13:53	300130	N
13:54	300482	N
13:55	300854	N
13:56	301244	N
13:57	301538	V
13:58	301990	N
13:59	302347	N
14:00	302699	N
14:01	303078	N
14:02	303467	N
14:03	303828	N
14:05	304207	N
14:06	304560	N
14:06	304908	N
14:07	305146	V
14:09	305669	N
14:10	306030	N
14:11	306399	N
14:12	306751	N
14:13	307091	N
14:14	307471	N
14:15	307850	N
14:16	308204	N
14:17	308571	N
14:18	308918	N
14:19	309248	N
14:20	309610	N
14:21	309982	N
14:22	310328	N
14:23	310689	N
14:24	311042	N
14:24	311367	N
14:25	311739	N
14:26	312117	N
14:27	312466	N
14:28	312824	N
14:29	313174	N
14:30	313513	N
14:31	313879	N
14:32	314260	N
14:33	314626	N
14:34	314985	N
14:35	315338	N
14:36	315673	N
14:37	316051	N
14:38	316421	N
14:39	316783	N
14:40	317139	N
14:41	317494	N
14:42	317835	N
14:43	318193	N
14:44	318562	N
14:45	318919	N
14:46	319261	N
14:47	319605	N
14:48	319936	N
14:49	320290	N
14:50	320660	N
14:51	321017	N
14:52	321358	N
14:53	321697	N
14:54	322038	N
14:55	322375	N
14:56	322737	N
14:57	323095	N
14:58	323443	N
14:59	323781	N
15:00	324111	N
15:01	324461	N
15:02	324815	N
15:03	325175	N
15:04	325512	N
15:05	325856	N
15:06	326195	N
15:07	326526	N
15:08	326896	N
15:09	327248	N
15:09	327587	N
15:10	327941	N
15:11	328272	N
15:12	328601	N
15:13	328981	N
15:14	329348	N
15:15	329702	N
15:16	330055	N
15:17	330404	N
15:18	330739	N
15:19	331120	N
15:20	331493	N
15:21	331846	N
15:22	332189	N
15:23	332531	N
15:24	332862	N
15:25	333209	N
15:26	333580	N
15:27	333932	N
15:28	334275	N
15:29	334623	N
15:30	334965	N
15:31	335301	N
15:32	335677	N
15:33	336031	N
15:34	336376	N
15:35	336719	N
15:36	337058	N
15:37	337390	N
15:38	337771	N
15:39	338130	N
15:40	338474	N
15:41	338821	N
15:42	339168	N
15:43	339500	N
15:44	339869	N
15:45	340237	N
15:46	340566	N
15:46	340910	N
15:47	341244	N
15:48	341563	N
15:49	341910	N
15:50	342270	N
15:51	342618	N
15:52	342947	N
15:53	343282	N
15:54	343626	N
15:55	343965	N
15:56	344338	N
15:57	344700	N
15:58	345037	N
15:59	345379	N
16:00	345721	N
16:01	346064	N
16:02	346420	N
16:03	346789	N
16:04	347129	N
16:05	347473	N
16:06	347815	N
16:07	348139	N
16:08	348502	N
16:09	348877	N
16:10	349227	N
16:11	349574	N
16:11	349915	N
16:12	350256	N
16:13	350627	N
16:14	350985	N
16:15	351341	N
16:16	351682	N
16:17	352023	N
16:18	352345	N
16:19	352702	N
16:20	353062	N
16:21	353414	N
16:22	353760	N
16:23	354086	N
16:24	354272	V
16:25	354756	N
16:26	355043	A
16:27	355441	N
16:28	355778	N
16:28	355971	V
16:30	356430	N
16:30	356743	N
16:31	357102	N
16:32	357441	N
16:33	357767	N
16:34	358105	N
16:35	358421	N
16:36	358739	N
16:37	359070	N
16:38	359429	N
16:39	359773	N
16:40	360100	N
16:41	360435	N
16:42	360760	N
16:42	361079	N
16:43	361431	N
16:44	361782	N
16:45	362114	N
16:46	362459	N
16:47	362793	N
16:48	363114	N
16:49	363463	N
16:50	363834	N
16:51	364191	N
16:52	364529	N
16:53	364878	N
16:54	365212	N
16:55	365552	N
16:56	365912	N
16:57	366267	N
16:58	366603	N
16:59	366946	N
17:00	367284	N
17:01	367606	N
17:02	367967	N
17:03	368338	N
17:04	368674	N
17:05	369019	N
17:06	369364	N
17:06	369685	N
17:07	370046	N
17:08	370403	N
17:09	370746	N
17:10	371079	N
17:11	371416	N
17:12	371737	N
17:13	372064	N
17:14	372412	N
17:15	372760	N
17:16	373083	N
17:17	373411	N
17:18	373740	N
17:19	374049	N
17:19	374398	N
17:20	374735	N
17:21	375068	N
17:22	375395	N
17:23	375722	N
17:24	376050	N
17:25	376385	N
17:26	376738	N
17:27	377093	N
17:28	377432	N
17:29	377768	N
17:30	378106	N
17:31	378433	N
17:32	378783	N
17:33	379129	N
17:34	379482	N
17:35	379814	N
17:35	380137	N
17:36	380467	N
17:37	380813	N
17:38	381162	N
17:39	381508	N
17:40	381845	N
17:41	382173	N
17:42	382506	N
17:43	382853	N
17:44	383201	N
17:45	383549	N
17:46	383891	N
17:47	384220	N
17:48	384551	N
17:49	384887	N
17:50	385239	N
17:51	385589	N
17:51	385915	N
17:52	386265	N
17:53	386595	N
17:54	386910	N
17:55	387279	N
17:56	387631	N
17:57	387980	N
17:58	388320	N
17:59	388658	N
18:00	388983	N
18:01	389327	N
18:02	389700	N
18:03	390046	N
18:04	390381	N
18:05	390722	N
18:06	391054	N
18:07	391378	N
18:08	391749	N
18:09	392094	N
18:10	392421	N
18:10	392751	N
18:11	393091	N
18:12	393406	N
18:13	393759	N
18:14	394126	N
18:15	394463	N
18:16	394801	N
18:17	395139	N
18:18	395476	N
18:19	395824	N
18:20	396202	N
18:21	396556	N
18:22	396888	N
18:23	397226	N
18:24	397562	N
18:25	397886	N
18:26	398237	N
18:27	398592	N
18:28	398916	N
18:29	399249	N
18:29	399574	N
18:30	399890	N
18:31	400236	N
18:32	400592	N
18:33	400934	N
18:34	401255	N
18:35	401579	N
18:36	401910	N
18:37	402233	N
18:38	402569	N
18:39	402919	N
18:40	403244	N
18:41	403573	N
18:41	403899	N
18:42	404225	N
18:43	404570	N
18:44	404926	N
18:45	405278	N
18:46	405610	N
18:47	405942	N
18:48	406271	N
18:49	406604	N
18:50	406949	N
18:51	407298	N
18:52	407624	N
18:53	407946	N
18:54	408270	N
18:54	408593	N
18:55	408943	N
18:56	409284	N
18:57	409624	N
18:58	409956	N
18:59	410282	N
19:00	410602	N
19:01	410945	N
19:02	411288	N
19:03	411627	N
19:04	411956	N
19:05	412275	N
19:06	412596	N
19:06	412912	N
19:07	413264	N
19:08	413611	N
19:09	413952	N
19:10	414294	N
19:11	414624	N
19:12	414943	N
19:13	415303	N
19:14	415666	N
19:15	416004	N
19:16	416350	N
19:17	416677	N
19:18	417000	N
19:19	417325	N
19:20	417690	N
19:21	418029	N
19:22	418358	N
19:23	418697	N
19:23	419023	N
19:24	419336	N
19:25	419689	N
19:26	420046	N
19:27	420376	N
19:28	420710	N
19:29	421042	N
19:30	421360	N
19:31	421695	N
19:32	422040	N
19:33	422389	N
19:34	422710	N
19:35	423050	N
19:36	423372	N
19:36	423683	N
19:37	424030	N
19:38	424379	N
19:39	424716	N
19:40	425047	N
19:41	425383	N
19:42	425709	N
19:43	426045	N
19:44	426405	N
19:45	426766	N
19:46	427100	N
19:47	427440	N
19:48	427775	N
19:49	428101	N
19:50	428453	N
19:51	428801	N
19:52	429139	N
19:52	429468	N
19:53	429805	N
19:54	430123	N
19:55	430465	N
19:56	430818	N
19:57	431163	N
19:58	431493	N
19:59	431821	N
20:00	432148	N
20:01	432478	N
20:02	432828	N
20:03	433170	N
20:04	433509	N
20:05	433834	N
20:06	434168	N
20:06	434493	N
20:07	434605	~
20:07	434832	N
20:08	435182	N
20:09	435523	N
20:10	435849	N
20:11	435972	~
20:11	436165	N
20:12	436489	N
20:13	436810	N
20:14	437148	N
20:15	437488	N
20:16	437815	N
20:17	438134	N
20:17	438452	N
20:18	438767	N
20:19	439109	N
20:20	439456	N
20:21	439790	N
20:22	440129	N
20:23	440452	N
20:24	440786	N
20:25	441127	N
20:26	441474	N
20:27	441828	N
20:28	442165	N
20:29	442508	N
20:30	442844	N
20:31	443182	N
20:32	443544	N
20:33	443907	N
20:34	444245	N
20:34	444589	N
20:35	444920	N
20:36	445232	N
20:37	445582	N
20:38	445922	N
20:39	446263	N
20:40	446585	N
20:41	446909	N
20:42	447228	N
20:43	447540	N
20:44	447891	N
20:45	448223	N
20:45	448543	N
20:46	448862	N
20:47	449175	N
20:48	449471	N
20:49	449789	N
20:50	450124	N
20:51	450440	N
20:52	450745	N
20:52	451045	N
20:53	451349	N
20:54	451632	N
20:55	451930	N
20:56	452272	N
20:57	452587	N
20:58	452886	N
20:58	453194	N
20:59	453497	N
21:00	453798	N
21:01	454110	N
21:02	454451	N
21:03	454785	N
21:04	455089	N
21:05	455400	N
21:05	455713	N
21:06	456008	N
21:07	456337	N
21:08	456676	N
21:09	457006	N
21:10	457316	N
21:11	457624	N
21:12	457938	N
21:12	458248	N
21:13	458574	N
21:14	458916	N
21:15	459246	N
21:16	459552	N
21:17	459861	N
21:18	460175	N
21:19	460486	N
21:20	460822	N
21:20	461159	N
21:21	461477	N
21:22	461794	N
21:23	462102	N
21:24	462413	N
21:25	462731	N
21:26	463054	N
21:27	463400	N
21:28	463715	N
21:28	464029	N
21:29	464343	N
21:30	464648	N
21:31	464978	N
21:32	465297	N
21:33	465627	N
21:34	465937	N
21:35	466237	N
21:35	466535	N
21:36	466839	N
21:37	467161	N
21:38	467476	N
21:39	467813	N
21:40	468117	N
21:41	468417	N
21:42	468723	N
21:42	469014	N
21:43	469346	N
21:44	469662	N
21:45	469990	N
21:46	470299	N
21:47	470594	N
21:48	470901	N
21:48	471196	N
21:49	471524	N
21:50	471855	N
21:51	472179	N
21:52	472491	N
21:53	472800	N
21:54	473110	N
21:55	473421	N
21:56	473761	N
21:56	474091	N
21:57	474421	N
21:58	474755	N
21:59	475061	N
22:00	475377	N
22:01	475710	N
22:02	476052	N
22:03	476391	N
22:04	476720	N
22:05	477039	N
22:05	477355	N
22:06	477658	N
22:07	477995	N
22:08	478336	N
22:09	478661	N
22:10	478981	N
22:11	479300	N
22:12	479607	N
22:13	479913	N
22:14	480254	N
22:14	480587	N
22:15	480900	N
22:16	481222	N
22:17	481541	N
22:18	481840	N
22:19	482149	N
22:20	482478	N
22:21	482809	N
22:22	483125	N
22:22	483439	N
22:23	483753	N
22:24	484052	N
22:25	484378	N
22:26	484707	N
22:27	485032	N
22:28	485338	N
22:29	485647	N
22:29	485959	N
22:30	486251	N
22:31	486574	N
22:32	486905	N
22:33	487237	N
22:34	487541	N
22:35	487845	N
22:35	488155	N
22:36	488452	N
22:37	488783	N
22:38	489111	N
22:39	489441	N
22:40	489752	N
22:41	490055	N
22:42	490369	N
22:42	490668	N
22:43	490997	N
22:44	491314	N
22:45	491645	N
22:46	491952	N
22:47	492255	N
22:48	492569	N
22:49	492870	N
22:50	493201	N
22:50	493528	N
22:51	493840	N
22:52	494159	N
22:53	494457	N
22:54	494765	N
22:55	495068	N
22:56	495395	N
22:56	495712	N
22:57	496035	N
22:58	496345	N
22:59	496638	N
23:00	496960	N
23:01	497271	N
23:02	497603	N
23:03	497928	N
23:04	498249	N
23:04	498559	N
23:05	498855	N
23:06	499163	N
23:07	499484	N
23:08	499800	N
23:09	500119	N
23:10	500424	N
23:10	500727	N
23:11	501028	N
23:12	501326	N
23:13	501647	N
23:14	501962	N
23:15	502274	N
23:16	502581	N
23:16	502892	N
23:17	503188	N
23:18	503483	N
23:19	503813	N
23:20	504132	N
23:21	504457	N
23:22	504762	N
23:22	505070	N
23:23	505375	N
23:24	505676	N
23:25	506004	N
23:26	506337	N
23:27	506661	N
23:28	506968	N
23:29	507285	N
23:29	507584	N
23:30	507879	N
23:31	508216	N
23:32	508535	N
23:33	508854	N
23:34	509162	N
23:35	509480	N
23:36	509780	N
23:36	510075	N
23:37	510430	N
23:38	510766	N
23:39	511090	N
23:40	511418	N
23:41	511738	N
23:42	512053	N
23:43	512364	N
23:44	512722	N
23:45	513060	N
23:46	513380	N
23:46	513708	N
23:47	514039	N
23:48	514342	N
23:49	514679	N
23:50	515034	N
23:51	515348	N
23:52	515662	N
23:53	515966	N
23:54	516277	N
23:54	516569	N
23:55	516886	N
23:56	517226	N
23:57	517534	N
23:58	517835	N
23:59	518136	N
24:00	518437	N
24:00	518733	N
24:01	519051	N
24:02	519384	N
24:03	519702	N
24:04	520004	N
24:05	520303	N
24:06	520616	N
24:07	520920	N
24:07	521242	N
24:08	521579	N
24:09	521898	N
24:10	522204	N
24:11	522507	N
24:12	522820	N
24:13	523121	N
24:14	523445	N
24:14	523779	N
24:15	524087	N
24:16	524398	N
24:17	524705	N
24:18	525012	N
24:19	525323	N
24:20	525648	N
24:21	525979	N
24:21	526292	N
24:22	526601	N
24:23	526911	N
24:24	527213	N
24:25	527545	N
24:26	527880	N
24:27	528223	N
24:28	528541	N
24:29	528849	N
24:29	529160	N
24:30	529459	N
24:31	529788	N
24:32	530101	N
24:33	530431	N
24:34	530740	N
24:35	531037	N
24:35	531342	N
24:36	531638	N
24:37	531965	N
24:38	532291	N
24:39	532613	N
24:40	532929	N
24:41	533225	N
24:42	533534	N
24:42	533828	N
24:43	534159	N
24:44	534492	N
24:45	534808	N
24:46	535128	N
24:47	535440	N
24:48	535745	N
24:49	536055	N
24:50	536401	N
24:50	536724	N
24:51	537049	N
24:52	537382	N
24:53	537685	N
24:54	537996	N
24:55	538320	N
24:56	538659	N
24:57	538988	N
24:58	539310	N
24:58	539638	N
24:59	539955	N
25:00	540260	N
25:01	540603	N
25:02	540947	N
25:03	541278	N
25:04	541607	N
25:05	541925	N
25:06	542241	N
25:07	542553	N
25:08	542886	N
25:08	543228	N
25:09	543544	N
25:10	543867	N
25:11	544188	N
25:12	544493	N
25:13	544817	N
25:14	545158	N
25:15	545497	N
25:16	545801	N
25:17	546124	N
25:17	546435	N
25:18	546722	N
25:19	547051	N
25:20	547379	N
25:21	547696	N
25:22	547994	N
25:23	548291	N
25:23	548597	N
25:24	548880	N
25:25	549197	N
25:26	549523	N
25:27	549845	N
25:28	550144	N
25:29	550447	N
25:29	550756	N
25:30	551053	N
25:31	551369	N
25:32	551698	N
25:33	552027	N
25:34	552338	N
25:35	552645	N
25:36	552966	N
25:36	553272	N
25:37	553600	N
25:38	553931	N
25:39	554259	N
25:40	554568	N
25:41	554869	N
25:42	555186	N
25:43	555481	N
25:43	555799	N
25:44	556124	N
25:45	556439	N
25:46	556745	N
25:47	557048	N
25:48	557354	N
25:49	557652	N
25:49	557972	N
25:50	558288	N
25:51	558600	N
25:52	558910	N
25:53	559198	N
25:54	559508	N
25:55	559804	N
25:55	560110	N
25:56	560426	N
25:57	560728	N
25:58	561037	N
25:59	561323	N
26:00	561622	N
26:00	561914	N
26:01	562217	N
26:02	562531	N
26:03	562832	N
26:04	563124	N
26:05	563415	N
26:05	563700	N
26:06	563985	N
26:07	564290	N
26:08	564586	N
26:09	564890	N
26:09	565186	N
26:10	565479	N
26:11	565769	N
26:12	566059	N
26:13	566360	N
26:14	566673	N
26:14	566986	N
26:15	567284	N
26:16	567591	N
26:17	567879	N
26:18	568168	N
26:19	568470	N
26:19	568792	N
26:20	569104	N
26:21	569413	N
26:22	569735	N
26:23	570037	N
26:24	570338	N
26:25	570652	N
26:26	570980	N
26:26	571293	N
26:27	571589	N
26:28	571890	N
26:29	572191	N
26:30	572476	N
26:31	572769	N
26:31	573103	N
26:32	573417	N
26:33	573716	N
26:34	574029	N
26:35	574333	N
26:36	574629	N
26:37	574928	N
26:37	575268	N
26:38	575526	A
26:39	575888	N
26:40	576218	N
26:41	576526	N
26:42	576829	N
26:43	577119	N
26:44	577453	N
26:44	577726	A
26:45	578064	N
26:46	578375	N
26:47	578666	N
26:48	578960	N
26:49	579242	N
26:49	579549	N
26:50	579868	N
26:51	580161	N
26:52	580372	A
26:53	580704	N
26:53	580997	N
26:54	581264	N
26:55	581563	N
26:56	581870	N
26:57	582167	N
26:57	582447	N
26:58	582736	N
26:59	583017	N
27:00	583306	N
27:01	583593	N
27:01	583896	N
27:02	584211	N
27:03	584505	N
27:04	584795	N
27:05	585086	N
27:06	585374	N
27:06	585664	N
27:07	585973	N
27:08	586282	N
27:09	586598	N
27:10	586886	N
27:11	587179	N
27:11	587473	N
27:12	587764	N
27:13	588066	N
27:14	588384	N
27:15	588700	N
27:16	588996	N
27:16	589299	N
27:17	589603	N
27:18	589905	N
27:19	590237	N
27:20	590565	N
27:21	590907	N
27:22	591227	N
27:23	591533	N
27:24	591851	N
27:24	592166	N
27:25	592496	N
27:26	592824	N
27:27	593148	N
27:28	593461	N
27:29	593768	N
27:30	594066	N
27:31	594379	N
27:31	594701	N
27:32	595013	N
27:33	595329	N
27:34	595635	N
27:35	595935	N
27:36	596244	N
27:37	596551	N
27:38	596882	N
27:38	597210	N
27:39	597529	N
27:40	597845	N
27:41	598138	N
27:42	598436	N
27:43	598747	N
27:44	599059	N
27:44	599369	N
27:45	599674	N
27:46	599967	N
27:47	600256	N
27:48	600545	N
27:48	600825	N
27:49	601147	N
27:50	601451	N
27:51	601758	N
27:52	602055	N
27:53	602355	N
27:54	602653	N
27:54	602938	N
27:55	603274	N
27:56	603606	N
27:57	603917	N
27:58	604242	N
27:59	604555	N
28:00	604856	N
28:01	605160	N
28:01	605514	N
28:02	605844	N
28:03	606148	N
28:04	606470	N
28:05	606779	N
28:06	607081	N
28:07	607391	N
28:08	607725	N
28:09	608062	N
28:09	608372	N
28:10	608695	N
28:11	609009	N
28:12	609299	N
28:13	609625	N
28:14	609958	N
28:15	610278	N
28:16	610582	N
28:16	610897	N
28:17	611195	N
28:18	611491	N
28:19	611813	N
28:20	612131	N
28:21	612459	N
28:22	612757	N
28:22	613062	N
28:23	613368	N
28:24	613658	N
28:25	613978	N
28:26	614303	N
28:27	614626	N
28:28	614920	N
28:28	615228	N
28:29	615533	N
28:30	615819	N
28:31	616130	N
28:32	616451	N
28:33	616781	N
28:34	617082	N
28:34	617389	N
28:35	617700	N
28:36	617980	N
28:37	618296	N
28:38	618619	N
28:39	618931	N
28:40	619231	N
28:40	619520	N
28:41	619821	N
28:42	620104	N
28:43	620398	N
28:44	620705	N
28:45	621022	N
28:45	621315	N
28:46	621605	N
28:47	621896	N
28:48	622190	N
28:49	622483	N
28:50	622805	N
28:50	623114	N
28:51	623422	N
28:52	623722	N
28:53	624014	N
28:54	624314	N
28:55	624602	N
28:55	624909	N
28:56	625218	N
28:57	625522	N
28:58	625821	N
28:59	626115	N
29:00	626409	N
29:00	626700	N
29:01	627010	N
29:02	627313	N
29:03	627624	N
29:04	627923	N
29:05	628209	N
29:05	628506	N
29:06	628788	N
29:07	629088	N
29:08	629404	N
29:09	629705	N
29:10	630000	N
29:10	630290	N
29:11	630571	N
29:12	630854	N
29:13	631152	N
29:14	631454	N
29:14	631759	N
29:15	632039	N
29:16	632340	N
29:17	632626	N
29:18	632904	N
29:18	633208	N
29:19	633513	N
29:20	633820	N
29:21	634127	N
29:22	634420	N
29:23	634718	N
29:23	635009	N
29:24	635287	N
29:25	635604	N
29:26	635915	N
29:27	636219	N
29:28	636514	N
29:28	636816	N
29:29	637113	N
29:30	637395	N
29:30	637470	~
29:31	637648	A
29:32	638043	N
29:33	638375	N
29:34	638686	N
29:35	639006	N
29:35	639313	N
29:36	639606	N
29:37	639942	N
29:38	640261	N
29:39	640567	N
29:40	640854	N
29:40	641152	N
29:41	641438	N
29:42	641705	N
29:43	642004	N
29:44	642309	N
29:45	642605	N
29:45	642879	N
29:46	643158	N
29:47	643437	N
29:48	643713	N
29:48	643971	N
29:49	644273	N
29:50	644567	N
29:51	644852	N
29:52	645124	N
29:52	645395	N
29:53	645669	N
29:54	645942	N
29:55	646208	N
29:55	646504	N
29:56	646801	N
29:57	647079	N
29:58	647352	N
29:58	647624	N
29:59	647893	N
30:00	648146	N
30:01	648421	N
30:01	648709	N
30:02	648993	N
30:03	649261	N
30:04	649523	N
30:04	649783	N
