0:00	161	N
0:01	518	N
0:02	850	N
0:03	1211	N
0:04	1629	N
0:05	1977	N
0:06	2327	N
0:07	2699	N
0:08	3065	N
0:09	3406	N
0:10	3737	N
0:11	4114	N
0:12	4488	N
0:13	4823	N
0:14	5179	N
0:15	5519	N
0:16	5845	N
0:17	6161	N
0:18	6497	N
0:19	6857	N
0:19	7180	N
0:20	7496	N
0:21	7836	N
0:22	8185	N
0:23	8518	N
0:24	8830	N
0:25	9164	N
0:26	9498	N
0:27	9841	N
0:28	10158	N
0:29	10492	N
0:30	10828	N
0:30	11158	N
0:31	11473	N
0:32	11790	N
0:33	12113	N
0:34	12429	N
0:35	12735	N
0:36	13087	N
0:37	13423	N
0:38	13734	N
0:39	14088	N
0:40	14470	N
0:41	14809	N
0:42	15190	N
0:43	15600	N
0:44	15964	N
0:45	16318	N
0:46	16695	N
0:47	17071	N
0:48	17426	N
0:49	17787	N
0:50	18163	N
0:51	18518	N
0:52	18864	N
0:53	19216	N
0:54	19568	N
0:55	19882	N
0:56	20203	N
0:57	20539	N
0:57	20875	N
0:58	21175	N
0:59	21488	N
1:00	21832	N
1:01	22169	N
1:02	22519	N
1:03	22878	N
1:04	23219	N
1:05	23541	N
1:06	23872	N
1:07	24236	N
1:08	24565	N
1:09	24917	N
1:10	25285	N
1:11	25659	N
1:12	26012	N
1:13	26374	N
1:14	26733	N
1:15	27069	N
1:16	27383	N
1:16	27709	N
1:17	28036	N
1:18	28355	N
1:19	28665	N
1:20	28986	N
1:21	29353	N
1:22	29673	N
1:23	30003	N
1:24	30353	N
1:25	30694	N
1:26	31030	N
1:27	31381	N
1:28	31766	N
1:29	32109	N
1:30	32451	N
1:31	32797	N
1:32	33145	N
1:32	33471	N
1:33	33811	N
1:34	34161	N
1:35	34510	N
1:36	34828	N
1:37	35197	N
1:38	35542	N
1:39	35866	N
1:40	36233	N
1:41	36608	N
1:42	36924	N
1:43	37251	N
1:44	37633	N
1:45	38010	N
1:46	38334	N
1:47	38702	N
1:48	39097	N
1:49	39435	N
1:50	39773	N
1:51	40136	N
1:52	40502	N
1:53	40822	N
1:54	41156	N
1:55	41514	N
1:56	41843	N
1:57	42146	N
1:57	42464	N
1:58	42808	N
1:59	43133	N
2:00	43452	N
2:01	43800	N
2:02	44155	N
2:03	44477	N
2:04	44821	N
2:05	45189	N
2:06	45524	N
2:07	45860	N
2:08	46244	N
2:09	46607	N
2:10	46924	N
2:11	47235	N
2:12	47565	N
2:12	47877	N
2:13	48192	N
2:14	48522	N
2:15	48860	N
2:16	49190	N
2:17	49538	N
2:18	49892	N
2:19	50223	N
2:20	50545	N
2:21	50915	N
2:22	51272	N
2:23	51600	N
2:24	51945	N
2:25	52314	N
2:26	52642	N
2:27	52953	N
2:28	53284	N
2:28	53612	N
2:29	53913	N
2:30	54223	N
2:31	54557	N
2:32	54885	N
2:33	55196	N
2:34	55526	N
2:35	55925	N
2:36	56279	N
2:37	56613	N
2:38	56983	N
2:39	57330	N
2:40	57638	N
2:41	57981	N
2:42	58380	N
2:43	58725	N
2:44	59066	N
2:45	59429	N
2:46	59782	N
2:46	60091	N
2:47	60429	N
2:48	60777	N
2:49	61124	N
2:50	61439	N
2:51	61773	N
2:52	62143	N
2:53	62476	N
2:54	62779	N
2:55	63133	N
2:56	63514	N
2:57	63846	N
2:58	64188	N
2:59	64566	N
3:00	64925	N
3:01	65238	N
3:02	65548	N
3:02	65863	N
3:03	66178	N
3:04	66476	N
3:05	66793	N
3:06	67139	N
3:07	67465	N
3:08	67800	N
3:09	68231	N
3:10	68602	N
3:11	68974	N
3:12	69355	N
3:13	69737	N
3:14	70095	N
3:15	70470	N
3:16	70840	N
3:17	71194	N
3:18	71568	N
3:19	71938	N
3:20	72307	N
3:21	72658	N
3:22	73016	N
3:23	73380	N
3:24	73725	N
3:25	74078	N
3:26	74435	N
3:27	74798	N
3:28	75132	N
3:29	75469	N
3:30	75833	N
3:31	76194	N
3:32	76526	N
3:33	76866	N
3:34	77234	N
3:35	77588	N
3:36	77911	N
3:37	78233	N
3:38	78563	N
3:39	78875	N
3:39	79191	N
3:40	79505	N
3:41	79829	N
3:42	80144	N
3:43	80486	N
3:44	80843	N
3:45	81196	N
3:46	81517	N
3:47	81853	N
3:48	82172	N
3:49	82477	N
3:49	82793	N
3:50	83110	N
3:51	83407	N
3:52	83706	N
3:53	84022	N
3:54	84322	N
3:55	84612	N
3:55	84913	N
3:56	85225	N
3:57	85532	N
3:58	85875	N
3:59	86234	N
4:00	86580	N
4:01	86957	N
4:02	87319	N
4:03	87654	N
4:04	88006	N
4:05	88332	N
4:06	88637	N
4:07	88936	N
4:07	89257	N
4:08	89614	N
4:09	89959	N
4:10	90305	N
4:11	90699	N
4:13	91100	N
4:14	91466	N
4:15	91835	N
4:16	92216	N
4:17	92571	N
4:18	92895	N
4:19	93259	N
4:20	93633	N
4:21	93973	N
4:21	94290	N
4:22	94652	N
4:23	95011	N
4:24	95331	N
4:25	95664	N
4:26	96011	N
4:27	96334	N
4:28	96639	N
4:29	96980	N
4:30	97349	N
4:31	97678	N
4:32	98038	N
4:33	98412	N
4:34	98728	N
4:35	99038	N
4:36	99373	N
4:36	99701	N
4:37	100009	N
4:38	100328	N
4:39	100663	N
4:40	100987	N
4:41	101337	N
4:42	101731	N
4:43	102086	N
4:44	102417	N
4:45	102775	N
4:46	103155	N
4:47	103500	N
4:48	103839	N
4:49	104197	N
4:50	104532	N
4:51	104849	N
4:52	105189	N
4:53	105573	N
4:54	105956	N
4:55	106306	N
4:56	106649	N
4:57	106987	N
4:58	107300	N
4:58	107617	N
4:59	107925	N
5:00	108261	N
5:01	108589	N
5:02	108921	N
5:03	109284	N
5:04	109654	N
5:05	109991	N
5:06	110354	N
5:07	110741	N
5:08	111111	N
5:09	111444	N
5:10	111799	N
5:11	112186	N
5:12	112536	N
5:13	112860	N
5:14	113200	N
5:15	113555	N
5:16	113882	N
5:17	114202	N
5:18	114543	N
5:19	114878	N
5:19	115198	N
5:20	115532	N
5:21	115872	N
5:22	116198	N
5:23	116526	N
5:24	116889	N
5:25	117261	N
5:26	117587	N
5:27	117926	N
5:28	118310	N
5:29	118637	N
5:30	118966	N
5:31	119308	N
5:32	119661	N
5:33	119982	N
5:34	120313	N
5:35	120660	N
5:36	121018	N
5:37	121334	N
5:38	121683	N
5:39	122040	N
5:39	122359	N
5:40	122666	N
5:41	123001	N
5:42	123354	N
5:43	123673	N
5:44	123995	N
5:45	124379	N
5:46	124754	N
5:47	125082	N
5:48	125423	N
5:49	125765	N
5:50	126096	N
5:51	126397	N
5:52	126732	N
5:53	127129	N
5:54	127471	N
5:54	127788	N
5:55	128135	N
5:56	128501	N
5:57	128815	N
5:58	129132	N
5:59	129480	N
6:00	129821	N
6:01	130128	N
6:02	130447	N
6:03	130792	N
6:04	131112	N
6:05	131414	N
6:05	131738	N
6:06	132082	N
6:07	132406	N
6:08	132713	N
6:09	133044	N
6:10	133418	N
6:11	133778	N
6:12	134105	N
6:13	134491	N
6:14	134860	N
6:15	135189	N
6:16	135529	N
6:17	135898	N
6:18	136227	N
6:19	136527	N
6:20	136855	N
6:21	137211	N
6:22	137528	N
6:22	137841	N
6:23	138201	N
6:24	138583	N
6:25	138913	N
6:26	139260	N
6:27	139660	N
6:28	140004	N
6:29	140317	N
6:30	140672	N
6:31	141056	N
6:32	141390	N
6:33	141694	N
6:34	142048	N
6:35	142416	N
6:36	142773	N
6:37	143111	N
6:38	143482	N
6:39	143880	N
6:40	144233	N
6:41	144555	N
6:42	144914	N
6:43	145260	N
6:44	145578	N
6:45	145887	N
6:46	146223	N
6:47	146568	N
6:48	146883	N
6:48	147206	N
6:49	147560	N
6:50	147938	N
6:51	148277	N
6:52	148650	N
6:53	149034	N
6:54	149366	N
6:55	149680	N
6:56	150003	N
6:57	150331	N
6:58	150637	N
6:59	150954	N
7:00	151287	N
7:01	151630	N
7:02	151938	N
7:02	152250	N
7:03	152583	N
7:04	152921	N
7:05	153225	N
7:06	153563	N
7:07	153936	N
7:08	154295	N
7:09	154626	N
7:10	154964	N
7:11	155297	N
7:12	155606	N
7:13	155907	N
7:13	156235	N
7:14	156590	N
7:15	156910	N
7:16	157215	N
7:17	157542	N
7:18	157852	N
7:19	158147	N
7:20	158448	N
7:21	158800	N
7:22	159150	N
7:22	159473	N
7:24	159865	N
7:25	160257	N
7:26	160588	N
7:27	160927	N
7:28	161285	N
7:28	161618	N
7:29	161934	N
7:30	162252	N
7:31	162589	N
7:32	162917	N
7:33	163218	N
7:34	163523	N
7:35	163857	N
7:36	164168	N
7:36	164480	N
7:37	164810	N
7:38	165183	N
7:39	165538	N
7:40	165853	N
7:41	166175	N
7:42	166508	N
7:43	166824	N
7:44	167128	N
7:45	167423	N
7:45	167713	N
7:46	168013	N
7:47	168321	N
7:48	168624	N
7:49	168933	N
7:50	169235	N
7:51	169678	N
7:52	170095	N
7:53	170460	N
7:54	170826	N
7:55	171200	N
7:56	171579	N
7:57	171938	N
7:58	172315	N
7:59	172689	N
8:00	173054	N
8:01	173410	N
8:02	173774	N
8:03	174130	N
8:04	174452	N
8:05	174789	N
8:06	175174	N
8:07	175526	N
8:08	175854	N
8:09	176223	N
8:10	176592	N
8:11	176917	N
8:12	177240	N
8:13	177590	N
8:14	177944	N
8:15	178290	N
8:16	178605	N
8:17	178957	N
8:18	179328	N
8:19	179707	N
8:20	180031	N
8:20	180354	N
8:21	180689	N
8:22	181026	N
8:23	181330	N
8:24	181645	N
8:25	181994	N
8:26	182350	N
8:27	182669	N
8:28	183005	N
8:29	183378	N
8:30	183733	N
8:31	184041	N
8:32	184383	N
8:33	184760	N
8:34	185096	N
8:35	185413	N
8:35	185748	N
8:36	186081	N
8:37	186387	N
8:38	186701	N
8:39	187029	N
8:40	187350	N
8:41	187661	N
8:42	187987	N
8:43	188336	N
8:44	188685	N
8:45	189007	N
8:45	189359	N
8:47	189762	N
8:48	190121	N
8:49	190472	N
8:50	190823	N
8:51	191167	N
8:51	191483	N
8:52	191819	N
8:53	192173	N
8:54	192506	N
8:55	192834	N
8:56	193164	N
8:57	193523	N
8:58	193865	N
8:59	194216	N
9:00	194572	N
9:01	194915	N
9:02	195241	N
9:03	195579	N
9:04	195912	N
9:05	196239	N
9:05	196555	N
9:06	196873	N
9:07	197208	N
9:08	197534	N
9:09	197848	N
9:10	198184	N
9:11	198531	N
9:12	198889	N
9:13	199214	N
9:14	199556	N
9:15	199923	N
9:16	200256	N
9:17	200578	N
9:18	200908	N
9:18	201223	N
9:19	201539	N
9:20	201874	N
9:21	202232	N
9:22	202569	N
9:23	202909	N
9:24	203287	N
9:25	203626	N
9:26	203944	N
9:27	204282	N
9:28	204628	N
9:29	204963	N
9:30	205286	N
9:31	205635	N
9:32	205986	N
9:33	206296	N
9:33	206625	N
9:34	206960	N
9:35	207279	N
9:36	207588	N
9:37	207918	N
9:38	208291	N
9:39	208619	N
9:40	208927	N
9:41	209299	N
9:42	209676	N
9:43	210004	N
9:44	210323	N
9:45	210675	N
9:46	211020	N
9:47	211333	N
9:47	211655	N
9:48	211990	N
9:49	212311	N
9:50	212612	N
9:51	212921	N
9:52	213256	N
9:53	213584	N
9:54	213882	N
9:55	214201	N
9:55	214550	N
9:56	214869	N
9:57	215169	N
9:58	215481	N
9:59	215808	N
10:00	216120	N
10:01	216418	N
10:02	216722	N
10:03	217090	N
10:03	217413	N
10:04	217714	N
10:05	218040	N
10:06	218373	N
10:07	218691	N
10:08	218989	N
10:09	219308	N
10:10	219671	N
10:11	220007	N
10:11	220311	N
10:12	220631	N
10:13	220977	N
10:14	221289	N
10:15	221590	N
10:16	221930	N
10:17	222294	N
10:18	222610	N
10:19	222911	N
10:20	223231	N
10:21	223614	N
10:22	223952	N
10:23	224300	N
10:24	224683	N
10:25	225032	N
10:25	225337	N
10:26	225683	N
10:27	226038	N
10:28	226366	N
10:29	226676	N
10:30	227001	N
10:31	227358	N
10:32	227677	N
10:33	227983	N
10:34	228303	N
10:35	228615	N
10:35	228922	N
10:36	229231	N
10:37	229565	N
10:38	229881	N
10:39	230196	N
10:40	230498	N
10:41	230791	N
10:41	231083	N
10:42	231409	N
10:43	231739	N
10:44	232040	N
10:45	232344	N
10:46	232681	N
10:47	232998	N
10:48	233300	N
10:48	233623	N
10:49	233973	N
10:50	234300	N
10:51	234604	N
10:52	234934	N
10:53	235302	N
10:54	235632	N
10:55	235938	N
10:56	236293	N
10:57	236662	N
10:58	236991	N
10:59	237300	N
11:00	237655	N
11:01	238001	N
11:01	238310	N
11:02	238632	N
11:03	238983	N
11:04	239321	N
11:05	239629	N
11:06	239953	N
11:07	240309	N
11:08	240629	N
11:09	240933	N
11:10	241261	N
11:11	241609	N
11:12	241934	N
11:12	242236	N
11:13	242549	N
11:14	242910	N
11:15	243235	N
11:16	243541	N
11:17	243874	N
11:18	244203	N
11:19	244513	N
11:20	244809	N
11:20	245125	N
11:21	245470	N
11:22	245784	N
11:23	246076	N
11:24	246395	N
11:25	246706	N
11:26	247017	N
11:26	247304	N
11:27	247616	N
11:28	247940	N
11:29	248247	N
11:30	248544	N
11:31	248865	N
11:32	249209	N
11:33	249528	N
11:33	249835	N
11:34	250177	N
11:35	250540	N
11:36	250863	N
11:37	251199	N
11:38	251539	N
11:39	251880	N
11:40	252197	N
11:41	252511	N
11:42	252866	N
11:43	253227	N
11:44	253542	N
11:45	253911	N
11:46	254292	N
11:47	254627	N
11:48	254946	N
11:49	255270	N
11:50	255625	N
11:50	255940	N
11:51	256273	N
11:52	256679	N
11:54	257065	N
11:55	257401	N
11:55	257742	N
11:56	258109	N
11:57	258428	N
11:58	258734	N
11:59	259048	N
12:00	259366	N
12:01	259679	N
12:02	260004	N
12:03	260335	N
12:04	260663	N
12:04	260989	N
12:05	261337	N
12:07	261730	N
12:08	262080	N
12:08	262416	N
12:09	262741	N
12:10	263055	N
12:11	263367	N
12:12	263683	N
12:13	263992	N
12:14	264306	N
12:15	264603	N
12:15	264915	N
12:16	265244	N
12:17	265563	N
12:18	265872	N
12:19	266187	N
12:20	266493	N
12:21	266788	N
12:21	267081	N
12:22	267402	N
12:23	267752	N
12:24	268066	N
12:25	268416	N
12:26	268843	N
12:27	269203	N
12:28	269554	N
12:29	269923	N
12:30	270277	N
12:31	270594	N
12:32	270928	N
12:33	271292	N
12:34	271624	N
12:35	271930	N
12:36	272275	N
12:37	272664	N
12:38	273015	N
12:39	273334	N
12:40	273683	N
12:41	274052	N
12:42	274386	N
12:43	274707	N
12:44	275048	N
12:45	275419	N
12:45	275746	N
12:46	276066	N
12:47	276414	N
12:48	276762	N
12:49	277072	N
12:50	277410	N
12:51	277771	N
12:52	278112	N
12:53	278427	N
12:54	278759	N
12:55	279107	N
12:56	279411	N
12:56	279704	N
12:57	280005	N
12:58	280322	N
12:59	280621	N
13:00	280911	N
13:01	281224	N
13:02	281559	N
13:02	281864	N
13:03	282153	N
13:04	282470	N
13:05	282805	N
13:06	283120	N
13:07	283418	N
13:08	283748	N
13:09	284126	N
13:10	284443	N
13:11	284770	N
13:11	285105	N
13:12	285427	N
13:13	285730	N
13:14	286042	N
13:15	286360	N
13:16	286677	N
13:17	286979	N
13:18	287280	N
13:18	287623	N
13:19	287945	N
13:20	288256	N
13:21	288575	N
13:22	288906	N
13:23	289230	N
13:24	289534	N
13:25	289898	N
13:26	290292	N
13:27	290649	N
13:28	290998	N
13:29	291349	N
13:30	291706	N
13:31	292022	N
13:32	292347	N
13:33	292701	N
13:34	293058	N
13:34	293388	N
13:35	293739	N
13:37	294121	N
13:37	294474	N
13:38	294793	N
13:39	295142	N
13:40	295495	N
13:41	295835	N
13:42	296144	N
13:43	296461	N
13:44	296813	N
13:45	297133	N
13:46	297434	N
13:47	297757	N
13:48	298110	N
13:49	298462	N
13:49	298776	N
13:50	299115	N
13:51	299466	N
13:52	299780	N
13:53	300088	N
13:54	300411	N
13:55	300744	N
13:56	301062	N
13:57	301378	N
13:58	301708	N
13:59	302053	N
13:59	302367	N
14:00	302692	N
14:01	303090	N
14:02	303469	N
14:03	303805	N
14:04	304137	N
14:05	304474	N
14:06	304807	N
14:07	305110	N
14:08	305452	N
14:09	305810	N
14:10	306159	N
14:11	306469	N
14:12	306791	N
14:13	307136	N
14:14	307491	N
14:15	307800	N
14:15	308124	N
14:16	308458	N
14:17	308799	N
14:18	309108	N
14:19	309418	N
14:20	309762	N
14:21	310089	N
14:22	310387	N
14:23	310710	N
14:24	311043	N
14:24	311367	N
14:25	311669	N
14:26	311970	N
14:27	312280	N
14:28	312596	N
14:29	312887	N
14:29	313187	N
14:30	313513	N
14:31	313866	N
14:32	314183	N
14:33	314543	N
14:34	314992	N
14:36	315361	N
14:37	315739	N
14:38	316121	N
14:39	316499	N
14:40	316847	N
14:41	317205	N
14:42	317578	N
14:43	317917	N
14:44	318247	N
14:44	318596	N
14:45	318945	N
14:46	319260	N
14:47	319581	N
14:48	319944	N
14:49	320294	N
14:50	320610	N
14:51	320967	N
14:52	321343	N
14:53	321693	N
14:54	322003	N
14:55	322344	N
14:56	322735	N
14:57	323072	N
14:58	323399	N
14:59	323764	N
15:00	324120	N
15:01	324438	N
15:02	324736	N
15:02	325076	N
15:03	325412	N
15:04	325714	N
15:05	326014	N
15:06	326319	N
15:07	326628	N
15:08	326925	N
15:08	327218	N
15:09	327538	N
15:10	327928	N
15:11	328258	N
15:12	328634	N
15:13	329039	N
15:15	329408	N
15:15	329730	N
15:16	330074	N
15:17	330458	N
15:18	330774	N
15:19	331088	N
15:20	331422	N
15:21	331755	N
15:22	332062	N
15:23	332393	N
15:24	332740	N
15:25	333078	N
15:26	333386	N
15:26	333707	N
15:27	334034	N
15:28	334356	N
15:29	334670	N
15:30	335002	N
15:31	335391	N
15:32	335729	N
15:33	336045	N
15:34	336375	N
15:35	336710	N
15:36	337030	N
15:37	337338	N
15:38	337687	N
15:39	338050	N
15:39	338371	N
15:40	338679	N
15:41	339023	N
15:42	339378	N
15:43	339706	N
15:44	340017	N
15:45	340381	N
15:46	340773	N
15:47	341099	N
15:48	341411	N
15:49	341731	N
15:50	342041	N
15:50	342353	N
15:51	342668	N
15:52	343026	N
15:53	343382	N
15:54	343693	N
15:55	344043	N
15:56	344460	N
15:57	344820	N
15:58	345156	N
15:59	345531	N
16:00	345910	N
16:01	346231	N
16:02	346554	N
16:03	346884	N
16:04	347227	N
16:05	347542	N
16:06	347872	N
16:07	348218	N
16:08	348573	N
16:09	348888	N
16:10	349213	N
16:11	349595	N
16:12	349979	N
16:13	350303	N
16:13	350631	N
16:14	350966	N
16:15	351279	N
16:16	351570	N
16:17	351892	N
16:18	352219	N
16:19	352536	N
16:20	352829	N
16:20	353148	N
16:21	353482	N
16:22	353811	N
16:23	354112	N
16:24	354440	N
16:25	354795	N
16:26	355148	N
16:27	355457	N
16:28	355789	N
16:29	356140	N
16:30	356449	N
16:30	356742	N
16:31	357048	N
16:32	357356	N
16:33	357662	N
16:34	357953	N
16:35	358250	N
16:35	358551	N
16:36	358854	N
16:37	359145	N
16:38	359444	N
16:39	359762	N
16:40	360085	N
16:41	360391	N
16:41	360708	N
16:42	361044	N
16:43	361378	N
16:44	361691	N
16:45	362029	N
16:46	362438	N
16:47	362792	N
16:48	363130	N
16:49	363478	N
16:50	363809	N
16:51	364111	N
16:52	364434	N
16:53	364790	N
16:54	365106	N
16:55	365420	N
16:55	365742	N
16:56	366083	N
16:57	366403	N
16:58	366709	N
16:59	367028	N
17:00	367365	N
17:01	367682	N
17:02	367988	N
17:03	368301	N
17:03	368629	N
17:04	368973	N
17:05	369286	N
17:06	369602	N
17:07	369927	N
17:08	370247	N
17:09	370554	N
17:10	370872	N
17:11	371196	N
17:12	371524	N
17:12	371834	N
17:13	372189	N
17:14	372532	N
17:15	372865	N
17:16	373185	N
17:17	373509	N
17:18	373836	N
17:19	374182	N
17:20	374491	N
17:21	374815	N
17:22	375163	N
17:23	375551	N
17:24	375895	N
17:25	376253	N
17:26	376633	N
17:27	376967	N
17:27	377272	N
17:28	377591	N
17:29	377935	N
17:30	378273	N
17:31	378587	N
17:32	378893	N
17:33	379208	N
17:34	379517	N
17:35	379812	N
17:35	380121	N
17:36	380436	N
17:37	380747	N
17:38	381046	N
17:39	381359	N
17:40	381696	N
17:41	382026	N
17:42	382326	N
17:42	382633	N
17:43	382956	N
17:44	383268	N
17:45	383568	N
17:46	383875	N
17:47	384177	N
17:47	384477	N
17:48	384776	N
17:49	385064	N
17:50	385375	N
17:51	385670	N
17:52	385994	N
17:53	386324	N
17:54	386678	N
17:55	387028	N
17:56	387398	N
17:57	387834	N
17:58	388195	N
17:59	388523	N
18:00	388836	N
18:00	389137	N
18:01	389445	N
18:02	389757	N
18:03	390070	N
18:04	390392	N
18:05	390701	N
18:06	391053	N
18:07	391499	N
18:08	391879	N
18:09	392291	N
18:10	392686	N
18:11	393060	N
18:12	393432	N
18:13	393797	N
18:14	394125	N
18:15	394443	N
18:16	394763	N
18:17	395068	N
18:18	395370	N
18:19	395695	N
18:20	396032	N
18:20	396359	N
18:22	396726	N
18:23	397121	N
18:24	397460	N
18:25	397801	N
18:26	398196	N
18:27	398538	N
18:27	398868	N
18:28	399199	N
18:29	399531	N
18:30	399851	N
18:31	400180	N
18:32	400513	N
18:33	400834	N
18:34	401144	N
18:35	401498	N
18:36	401842	N
18:37	402170	N
18:38	402494	N
18:39	402848	N
18:40	403228	N
18:41	403560	N
18:41	403902	N
18:42	404241	N
18:43	404556	N
18:44	404872	N
18:45	405228	N
18:46	405613	N
18:47	405989	N
18:48	406319	N
18:49	406665	N
18:50	407023	N
18:51	407349	N
18:52	407667	N
18:53	407985	N
18:54	408319	N
18:55	408632	N
18:55	408949	N
18:56	409300	N
18:57	409648	N
18:58	409961	N
18:59	410290	N
19:00	410614	N
19:01	410942	N
19:02	411241	N
19:03	411551	N
19:04	411860	N
19:04	412183	N
19:05	412497	N
19:06	412813	N
19:07	413146	N
19:08	413476	N
19:09	413793	N
19:10	414120	N
19:11	414448	N
19:12	414759	N
19:12	415064	N
19:13	415398	N
19:14	415741	N
19:15	416045	N
19:16	416345	N
19:17	416645	N
19:18	416977	N
19:19	417278	N
19:19	417570	N
19:20	417882	N
19:21	418178	N
19:22	418459	N
19:23	418753	N
19:23	419037	N
19:24	419340	N
19:25	419627	N
19:26	419913	N
19:27	420221	N
19:28	420530	N
19:28	420831	N
19:29	421135	N
19:30	421479	N
19:31	421810	N
19:32	422124	N
19:33	422439	N
19:34	422760	N
19:35	423076	N
19:36	423385	N
19:36	423700	N
19:37	424043	N
19:38	424363	N
19:39	424693	N
19:40	425029	N
19:41	425386	N
19:42	425698	N
19:43	426008	N
19:44	426334	N
19:45	426640	N
19:45	426959	N
19:47	427332	N
19:47	427665	N
19:48	428011	N
19:50	428412	N
19:51	428777	N
19:51	429106	N
19:52	429459	N
19:53	429836	N
19:54	430166	N
19:55	430476	N
19:56	430793	N
19:57	431111	N
19:58	431409	N
19:59	431704	N
20:00	432019	N
20:00	432356	N
20:01	432668	N
20:02	432977	N
20:03	433311	N
20:04	433649	N
20:05	433950	N
20:06	434257	N
20:07	434568	N
20:07	434877	N
20:08	435172	N
20:09	435481	N
20:10	435845	N
20:11	436193	N
20:12	436510	N
20:13	436858	N
20:14	437224	N
20:15	437550	N
20:16	437853	N
20:17	438176	N
20:18	438516	N
20:18	438822	N
20:19	439118	N
20:20	439444	N
20:21	439796	N
20:22	440123	N
20:23	440432	N
20:24	440801	N
20:25	441217	N
20:26	441566	N
20:27	441890	N
20:28	442215	N
20:29	442540	N
20:30	442852	N
20:30	443147	N
20:31	443474	N
20:32	443822	N
20:33	444169	N
20:34	444486	N
20:35	444844	N
20:36	445242	N
20:37	445578	N
20:38	445911	N
20:39	446248	N
20:40	446587	N
20:41	446884	N
20:42	447179	N
20:42	447470	N
20:43	447756	N
20:44	448041	N
20:45	448316	N
20:46	448615	N
20:47	448934	N
20:47	449238	N
20:48	449571	N
20:49	449969	N
20:50	450348	N
20:51	450689	N
20:53	451080	N
20:54	451480	N
20:55	451829	N
20:56	452187	N
20:57	452553	N
20:57	452878	N
20:58	453179	N
20:59	453480	N
21:00	453812	N
21:01	454109	N
21:02	454406	N
21:03	454713	N
21:04	455040	N
21:04	455344	N
21:05	455637	N
21:06	455930	N
21:07	456261	N
21:08	456564	N
21:09	456856	N
21:09	457155	N
21:10	457467	N
21:11	457789	N
21:12	458092	N
21:13	458405	N
21:14	458742	N
21:15	459064	N
21:15	459358	N
21:16	459646	N
21:17	459939	N
21:18	460230	N
21:19	460528	N
21:20	460821	N
21:20	461112	N
21:21	461417	N
21:22	461718	N
21:23	462031	N
21:24	462337	N
21:25	462639	N
21:25	462948	N
21:26	463256	N
21:27	463571	N
21:28	463877	N
21:28	464021	~
21:29	464173	N
21:30	464463	N
21:30	464743	N
21:31	465019	N
21:32	465299	N
21:33	465579	N
21:34	465850	N
21:34	466115	N
21:35	466388	N
21:36	466661	N
21:37	466925	N
21:37	467185	N
21:38	467353	~
21:38	467448	N
21:39	467713	N
21:39	467983	N
21:40	468259	N
21:41	468522	N
21:42	468787	N
21:42	469061	N
21:43	469329	N
21:44	469598	N
21:45	469863	N
21:45	470139	N
21:46	470419	N
21:47	470701	N
21:48	470975	N
21:49	471272	N
21:50	471624	N
21:51	472014	N
21:52	472411	N
21:53	472788	N
21:54	473168	N
21:55	473508	N
21:56	473849	N
21:57	474210	N
21:58	474551	N
21:59	474876	N
21:59	475179	N
22:00	475491	N
22:01	475815	N
22:02	476149	N
22:03	476453	N
22:04	476779	N
22:05	477125	N
22:06	477446	N
22:07	477750	N
22:07	478053	N
22:08	478376	N
22:09	478690	N
22:10	478973	N
22:11	479263	N
22:12	479563	N
22:12	479858	N
22:13	480141	N
22:14	480442	N
22:15	480752	N
22:16	481046	N
22:17	481349	N
22:17	481664	N
22:18	481986	N
22:19	482295	N
22:20	482669	N
22:21	483066	N
22:22	483408	N
22:23	483760	N
22:24	484133	N
22:25	484504	N
22:26	484833	N
22:27	485147	N
22:28	485461	N
22:29	485799	N
22:30	486119	N
22:31	486424	N
22:32	486735	N
22:32	487067	N
22:33	487397	N
22:34	487712	N
22:35	488057	N
22:36	488431	N
22:37	488766	N
22:38	489082	N
22:39	489385	N
22:40	489698	N
22:41	489997	N
22:41	490307	N
22:42	490646	N
22:43	490965	N
22:44	491277	N
22:45	491607	N
22:46	491971	N
22:47	492318	N
22:48	492626	N
22:49	492948	N
22:50	493291	N
22:51	493600	N
22:51	493909	N
22:52	494226	N
22:53	494552	N
22:54	494871	N
22:55	495212	N
22:56	495630	N
22:57	496009	N
22:58	496382	N
22:59	496738	N
23:00	497078	N
23:01	497406	N
23:02	497720	N
23:03	498017	N
23:04	498314	N
23:05	498614	N
23:05	498925	N
23:06	499225	N
23:07	499517	N
23:08	499846	N
23:09	500186	N
23:10	500493	N
23:11	500800	N
23:11	501117	N
23:12	501453	N
23:13	501759	N
23:14	502051	N
23:15	502352	N
23:16	502659	N
23:17	502946	N
23:17	503231	N
23:18	503525	N
23:19	503830	N
23:20	504129	N
23:21	504416	N
23:22	504720	N
23:22	505052	N
23:23	505357	N
23:24	505654	N
23:25	505970	N
23:26	506278	N
23:27	506578	N
23:28	506886	N
23:28	507200	N
23:29	507512	N
23:30	507812	N
23:31	508136	N
23:32	508449	N
23:33	508762	N
23:34	509105	N
23:35	509550	N
23:36	509924	N
23:37	510323	N
23:38	510697	N
23:39	511075	N
23:40	511464	N
23:41	511840	N
23:42	512207	N
23:43	512552	N
23:44	512930	N
23:45	513308	N
23:46	513648	N
23:47	514023	N
23:48	514393	N
23:49	514726	N
23:50	515038	N
23:51	515360	N
23:52	515657	N
23:53	515942	N
23:54	516241	N
23:54	516560	N
23:55	516859	N
23:56	517146	N
23:57	517441	N
23:58	517729	N
23:58	518018	N
23:59	518201	|
23:59	518298	N
24:00	518571	N
24:01	518846	N
24:02	519125	N
24:02	519423	N
24:03	519712	N
24:04	519995	N
24:05	520294	N
24:06	520626	N
24:07	520922	N
24:07	521235	N
24:08	521597	N
24:09	521986	N
24:10	522312	N
24:11	522654	N
24:12	523012	N
24:13	523354	N
24:14	523657	N
24:15	523971	N
24:16	524310	N
24:17	524695	N
24:18	525063	N
24:19	525379	N
24:20	525716	N
24:21	526124	N
24:22	526507	N
24:23	526850	N
24:24	527187	N
24:25	527529	N
24:26	527873	N
24:27	528191	N
24:28	528494	N
24:28	528808	N
24:29	529157	N
24:30	529497	N
24:31	529819	N
24:32	530163	N
24:33	530598	N
24:34	530971	N
24:35	531334	N
24:36	531693	N
24:37	532042	N
24:38	532369	N
24:39	532677	N
24:40	532983	N
24:41	533306	N
24:42	533605	N
24:43	533928	N
24:44	534259	N
24:45	534635	N
24:46	534992	N
24:47	535398	N
24:48	535801	N
24:49	536172	N
24:50	536570	N
24:51	536952	N
24:52	537308	N
24:53	537684	N
24:54	538033	N
24:55	538382	N
24:56	538701	N
24:57	539012	N
24:58	539312	N
24:58	539611	N
24:59	539941	N
25:00	540298	N
25:01	540619	N
25:02	540977	N
25:03	541306	N
25:04	541606	N
25:05	541907	N
25:06	542228	N
25:07	542593	N
25:08	542898	N
25:08	543199	N
25:09	543561	N
25:10	543916	N
25:11	544260	N
25:12	544676	N
25:14	545075	N
25:15	545424	N
25:16	545760	N
25:16	546113	N
25:17	546423	N
25:18	546720	N
25:19	547032	N
25:20	547330	N
25:21	547632	N
25:22	547956	N
25:23	548284	N
25:23	548611	N
25:24	548913	N
25:25	549226	N
25:26	549554	N
25:27	549876	N
25:28	550180	N
25:29	550523	N
25:30	550829	N
25:30	551122	N
25:31	551416	N
25:32	551704	N
25:33	551987	N
25:34	552282	N
25:34	552570	N
25:35	552902	N
25:36	553244	N
25:37	553558	N
25:38	553880	N
25:39	554307	N
25:40	554709	N
25:41	555067	N
25:42	555452	N
25:43	555834	N
25:44	556185	N
25:46	556568	N
25:47	556941	N
25:48	557301	N
25:49	557695	N
25:50	558108	N
25:51	558471	N
25:52	558872	N
25:53	559259	N
25:54	559623	N
25:55	560019	N
25:56	560396	N
25:57	560755	N
25:58	561128	N
25:59	561506	N
26:00	561851	N
26:01	562181	N
26:02	562513	N
26:03	562822	N
26:04	563125	N
26:05	563425	N
26:05	563743	N
26:06	564065	N
26:07	564361	N
26:08	564660	N
26:09	564966	N
26:10	565275	N
26:11	565573	N
26:11	565864	N
26:12	566146	N
26:13	566434	N
26:14	566728	N
26:15	567015	N
26:15	567308	N
26:16	567625	N
26:17	567926	N
26:18	568233	N
26:19	568551	N
26:20	568893	N
26:21	569240	N
26:22	569552	N
26:23	569883	N
26:23	570236	N
26:25	570669	N
26:26	571021	N
26:27	571329	N
26:27	571662	N
26:28	571979	N
26:29	572295	N
26:30	572605	N
26:31	572899	N
26:32	573226	N
26:33	573563	N
26:34	573886	N
26:34	574198	N
26:35	574506	N
26:36	574829	N
26:37	575177	N
26:38	575491	N
26:39	575802	N
26:40	576126	N
26:41	576446	N
26:42	576769	N
26:42	577069	N
26:43	577358	N
26:44	577653	N
26:45	577950	N
26:46	578241	N
26:47	578532	N
26:47	578831	N
26:48	579139	N
26:49	579454	N
26:50	579758	N
26:51	580072	N
26:52	580529	N
26:53	580954	N
26:54	581359	N
26:55	581731	N
26:57	582124	N
26:58	582502	N
26:59	582868	N
27:00	583246	N
27:01	583608	N
27:01	583674	|
27:01	583779	|
27:02	583956	N
27:03	584331	N
27:04	584712	N
27:05	585071	N
27:06	585451	N
27:07	585804	|
27:07	585815	N
27:08	586160	N
27:09	586494	N
27:10	586837	N
27:10	587157	N
27:11	587484	N
27:13	587919	N
27:13	588064	|
27:14	588284	N
27:15	588712	N
27:16	589085	N
27:17	589476	N
27:18	589864	N
27:19	590260	N
27:20	590658	N
27:21	591016	N
27:22	591339	N
27:22	591345	|
27:23	591633	N
27:24	591904	N
27:24	592177	N
27:25	592446	N
27:26	592708	N
27:27	592961	N
27:27	593217	N
27:28	593475	N
27:29	593732	N
27:29	593998	N
27:30	594250	N
27:31	594519	N
27:32	594806	N
27:33	595099	N
27:33	595372	N
27:34	595648	N
27:35	595944	N
27:36	596252	N
27:37	596556	N
27:37	596841	N
27:38	597132	N
27:39	597452	N
27:40	597776	N
27:41	598089	N
27:42	598394	N
27:43	598716	N
27:44	599187	N
27:45	599558	N
27:46	599961	N
27:47	600409	N
27:48	600816	N
27:49	601197	N
27:51	601609	N
27:52	601983	N
27:53	602344	N
27:54	602751	N
27:55	603132	N
27:56	603485	N
27:57	603883	N
27:58	604312	N
27:59	604692	N
28:00	605126	N
28:02	605521	N
28:03	605905	N
28:04	606310	N
28:05	606679	N
28:06	607062	N
28:07	607449	N
28:08	607806	N
28:09	608162	N
28:10	608542	N
28:11	608902	N
28:12	609253	N
28:13	609644	N
28:14	610074	N
28:15	610489	N
28:16	610871	N
28:17	611258	N
28:19	611666	N
28:20	612024	N
28:20	612347	N
28:21	612695	N
28:23	613111	N
28:24	613506	N
28:25	613918	N
28:26	614299	N
28:27	614689	N
28:28	615050	N
28:29	615425	N
28:30	615789	N
28:31	616125	N
28:32	616419	N
28:33	616738	N
28:34	617077	N
28:34	617374	N
28:35	617672	N
28:36	617986	N
28:37	618295	N
28:38	618587	N
28:39	618890	N
28:39	619192	N
28:40	619490	N
28:41	619775	N
28:42	620054	N
28:43	620351	N
28:44	620656	N
28:44	620961	N
28:45	621239	N
28:46	621525	N
28:47	621817	N
28:48	622116	N
28:48	622414	N
28:49	622698	N
28:50	623003	N
28:51	623312	N
28:52	623609	N
28:53	623915	N
28:53	624202	N
28:54	624500	N
28:55	624791	N
28:56	625090	N
28:57	625393	N
28:58	625693	N
28:58	625991	N
28:59	626300	N
29:00	626610	N
29:01	626911	N
29:02	627211	N
29:03	627509	N
29:03	627811	N
29:04	628126	N
29:05	628419	N
29:06	628706	N
29:07	629010	N
29:08	629316	N
29:08	629624	N
29:09	629922	N
29:10	630218	N
29:11	630533	N
29:12	630857	N
29:13	631162	N
29:14	631454	N
29:14	631772	N
29:15	632107	N
29:16	632446	N
29:17	632777	N
29:18	633231	N
29:20	633635	N
29:21	634011	N
29:22	634422	N
29:23	634798	N
29:24	635188	N
29:25	635582	N
29:26	635949	N
29:27	636311	N
29:28	636677	N
29:29	637029	N
29:30	637418	N
29:31	637799	N
29:32	638155	N
29:33	638553	N
29:34	638908	N
29:35	639254	N
29:36	639627	N
29:37	640012	N
29:38	640363	N
29:39	640769	N
29:40	641132	N
29:41	641512	N
29:43	641890	N
29:43	642234	N
29:44	642598	N
29:46	642961	N
29:46	643302	N
29:47	643613	N
29:48	643916	N
29:49	644215	N
29:50	644506	N
29:51	644791	N
29:51	645094	N
29:52	645387	N
29:53	645677	N
29:54	645968	N
29:55	646249	N
29:55	646533	N
29:56	646829	N
29:57	647110	N
29:58	647395	N
29:59	647673	N
29:59	647939	N
30:00	648199	N
30:01	648472	N
30:02	648752	N
30:02	649055	N
30:03	649357	N
30:04	649647	N
30:05	649955	N
