0:00	282	N
0:01	561	N
0:02	837	N
0:03	1104	N
0:03	1369	N
0:04	1639	N
0:05	1909	N
0:06	2180	N
0:06	2447	N
0:07	2718	N
0:08	2987	N
0:09	3255	N
0:09	3529	N
0:10	3796	N
0:11	4067	N
0:12	4344	N
0:12	4614	N
0:13	4886	N
0:14	5164	N
0:15	5434	N
0:15	5706	N
0:16	5977	N
0:17	6254	N
0:18	6532	N
0:18	6802	N
0:19	7085	N
0:20	7360	N
0:21	7633	N
0:21	7910	N
0:22	8183	N
0:23	8457	N
0:24	8738	N
0:25	9010	N
0:25	9283	N
0:26	9561	N
0:27	9831	N
0:28	10101	N
0:28	10372	N
0:29	10643	N
0:30	10918	N
0:31	11188	N
0:31	11460	N
0:32	11734	N
0:33	12012	N
0:34	12283	N
0:34	12551	N
0:35	12825	N
0:36	13112	N
0:37	13387	N
0:37	13666	N
0:38	13950	N
0:39	14221	N
0:40	14497	N
0:41	14772	N
0:41	15045	N
0:42	15319	N
0:43	15590	N
0:44	15863	N
0:44	16137	N
0:45	16415	N
0:46	16686	N
0:47	16953	N
0:47	17229	N
0:48	17512	N
0:49	17789	N
0:50	18069	N
0:50	18351	N
0:51	18632	N
0:52	18913	N
0:53	19188	N
0:54	19469	N
0:54	19753	N
0:55	20026	N
0:56	20305	N
0:57	20588	N
0:57	20865	N
0:58	21145	N
0:59	21421	N
1:00	21699	N
1:01	21984	N
1:01	22263	N
1:02	22549	N
1:03	22825	N
1:04	23097	N
1:04	23379	N
1:05	23654	N
1:06	23930	N
1:07	24207	N
1:08	24481	N
1:08	24762	N
1:09	25043	N
1:10	25311	N
1:11	25591	N
1:11	25867	N
1:12	26150	N
1:13	26423	N
1:14	26697	N
1:14	26981	N
1:15	27254	N
1:16	27527	N
1:17	27802	N
1:17	28075	N
1:18	28355	N
1:19	28625	N
1:20	28895	N
1:21	29174	N
1:21	29446	N
1:22	29714	N
1:23	29987	N
1:24	30258	N
1:24	30538	N
1:25	30813	N
1:26	31084	N
1:27	31365	N
1:27	31643	N
1:28	31912	N
1:29	32186	N
1:30	32458	N
1:30	32738	N
1:31	33008	N
1:32	33281	N
1:33	33566	N
1:34	33843	N
1:34	34119	N
1:35	34397	N
1:36	34676	N
1:37	34958	N
1:37	35132	V
1:38	35516	N
1:39	35793	N
1:39	35967	V
1:40	36343	N
1:41	36617	N
1:42	36888	N
1:43	37168	N
1:44	37440	N
1:44	37719	N
1:45	37994	N
1:46	38265	N
1:47	38540	N
1:47	38813	N
1:48	39089	N
1:49	39368	N
1:50	39644	N
1:50	39925	N
1:51	40202	N
1:52	40481	N
1:53	40758	N
1:53	41032	N
1:54	41312	N
1:55	41593	N
1:56	41868	N
1:57	42145	N
1:57	42422	N
1:58	42693	N
1:59	42967	N
2:00	43241	N
2:00	43518	N
2:01	43802	N
2:02	44078	N
2:03	44359	N
2:03	44637	N
2:04	44910	N
2:05	45187	N
2:06	45461	N
2:07	45739	N
2:07	46019	N
2:08	46294	N
2:09	46579	N
2:10	46858	N
2:10	47134	N
2:11	47413	N
2:12	47690	N
2:13	47970	N
2:14	48251	N
2:14	48527	N
2:15	48802	N
2:16	49080	N
2:17	49352	N
2:17	49624	N
2:18	49898	N
2:19	50171	N
2:20	50444	N
2:20	50714	N
2:21	50997	N
2:22	51268	N
2:23	51535	N
2:23	51816	N
2:24	52083	N
2:25	52364	N
2:26	52643	N
2:26	52914	N
2:27	53197	N
2:28	53474	N
2:29	53644	V
2:30	54014	N
2:30	54288	N
2:31	54559	N
2:32	54831	N
2:33	55102	N
2:33	55378	N
2:34	55648	N
2:35	55916	N
2:36	56183	V
2:36	56463	N
2:37	56740	N
2:38	56930	V
2:39	57281	N
2:39	57559	N
2:40	57831	N
2:41	58094	N
2:42	58361	N
2:42	58629	N
2:43	58897	N
2:44	59162	N
2:45	59432	N
2:45	59707	N
2:46	59972	N
2:47	60239	N
2:48	60514	N
2:48	60780	N
2:49	61057	N
2:50	61331	N
2:51	61597	N
2:51	61875	N
2:52	62143	N
2:53	62408	N
2:54	62679	N
2:54	62948	N
2:55	63214	N
2:56	63485	N
2:57	63756	N
2:57	64031	N
2:58	64302	N
2:59	64567	N
3:00	64842	N
3:00	65111	N
3:01	65388	N
3:02	65660	N
3:03	65930	N
3:03	66210	N
3:04	66480	N
3:05	66748	N
3:06	67018	N
3:06	67288	N
3:07	67560	N
3:08	67833	N
3:09	68103	N
3:09	68381	N
3:10	68651	N
3:11	68916	N
3:12	69193	N
3:12	69461	N
3:13	69737	N
3:14	70010	N
3:15	70279	N
3:15	70558	N
3:16	70829	N
3:17	71098	N
3:18	71369	N
3:18	71637	N
3:19	71907	N
3:20	72181	N
3:21	72449	N
3:21	72718	N
3:22	72989	N
3:23	73258	N
3:24	73528	N
3:24	73791	N
3:25	74064	N
3:26	74339	N
3:27	74602	N
3:27	74774	V
3:28	75145	N
3:29	75417	N
3:30	75682	N
3:30	75950	N
3:31	76214	N
3:32	76487	N
3:33	76754	N
3:33	77017	N
3:34	77293	N
3:35	77560	N
3:36	77824	N
3:36	78090	N
3:37	78360	N
3:38	78630	N
3:39	78897	N
3:39	79163	N
3:40	79438	N
3:41	79704	N
3:42	79966	N
3:42	80238	N
3:43	80503	N
3:44	80768	N
3:45	81039	N
3:45	81304	N
3:46	81574	N
3:47	81844	N
3:48	82110	N
3:48	82377	N
3:49	82646	N
3:50	82913	N
3:51	83183	N
3:51	83448	N
3:52	83720	N
3:53	83989	N
3:54	84256	N
3:54	84523	N
3:55	84784	N
3:56	85052	N
3:57	85326	N
3:57	85592	N
3:58	85859	N
3:59	86133	N
4:00	86403	N
4:00	86669	N
4:01	86940	N
4:02	87209	N
4:03	87485	N
4:03	87753	N
4:04	88026	N
4:05	88301	N
4:06	88574	N
4:06	88845	N
4:07	89110	N
4:08	89384	N
4:09	89661	N
4:09	89932	N
4:10	90205	N
4:11	90482	N
4:12	90757	N
4:12	91031	N
4:13	91305	N
4:14	91579	N
4:15	91857	N
4:15	92129	N
4:16	92405	N
4:17	92679	N
4:18	92946	N
4:18	93220	N
4:19	93483	N
4:20	93750	N
4:21	94025	N
4:21	94290	N
4:22	94566	N
4:23	94753	V
4:24	95105	N
4:24	95381	N
4:25	95553	V
4:26	95920	N
4:26	96109	V
4:27	96469	N
4:28	96737	N
4:29	97009	N
4:30	97272	N
4:30	97542	N
4:31	97802	N
4:32	98070	N
4:33	98344	N
4:33	98610	N
4:34	98878	N
4:35	99151	N
4:36	99423	N
4:36	99699	N
4:37	99973	N
4:38	100251	N
4:39	100535	N
4:40	100815	N
4:40	101092	N
4:41	101376	N
4:42	101656	N
4:43	101932	N
4:43	102204	N
4:44	102483	N
4:45	102765	N
4:46	103037	N
4:46	103317	N
4:47	103596	N
4:48	103873	N
4:49	104152	N
4:49	104329	V
4:50	104693	N
4:51	104970	N
4:52	105238	N
4:52	105407	V
4:53	105773	N
4:54	106040	N
4:55	106300	N
4:56	106563	N
4:56	106822	N
4:57	107093	N
4:58	107356	N
4:58	107624	N
4:59	107905	N
5:00	108184	N
5:01	108462	N
5:02	108743	N
5:02	109023	N
5:03	109312	N
5:04	109589	N
5:05	109866	N
5:05	110153	N
5:06	110431	N
5:07	110699	N
5:08	110976	N
5:09	111249	N
5:09	111530	N
5:10	111805	N
5:11	112079	N
5:12	112361	N
5:12	112639	N
5:13	112913	N
5:14	113185	N
5:15	113457	N
5:15	113735	N
5:16	114003	N
5:17	114273	N
5:18	114547	N
5:18	114820	N
5:19	115084	N
5:20	115355	N
5:21	115632	N
5:21	115910	N
5:22	116183	N
5:23	116458	N
5:24	116737	N
5:25	117008	N
5:25	117283	N
5:26	117550	N
5:27	117816	N
5:28	118093	N
5:28	118357	N
5:29	118620	N
5:30	118894	N
5:31	119161	N
5:31	119423	N
5:32	119689	N
5:33	119954	N
5:33	120227	N
5:34	120494	N
5:35	120758	N
5:36	121030	N
5:36	121302	N
5:37	121570	N
5:38	121836	N
5:39	122105	N
5:39	122381	N
5:40	122645	N
5:41	122911	N
5:42	123185	N
5:42	123453	N
5:43	123714	N
5:44	123981	N
5:45	124249	N
5:45	124520	N
5:46	124787	N
5:47	125052	N
5:48	125328	N
5:48	125598	N
5:49	125781	V
5:50	126132	N
5:51	126399	N
5:51	126672	N
5:52	126935	N
5:53	127199	N
5:54	127472	N
5:54	127739	N
5:55	128002	N
5:56	128276	N
5:57	128546	N
5:57	128819	N
5:58	129093	N
5:59	129363	N
6:00	129639	N
6:00	129911	N
6:01	130180	N
6:02	130453	N
6:03	130721	N
6:03	130997	N
6:04	131273	N
6:05	131543	N
6:06	131820	N
6:06	132021	V
6:07	132355	N
6:08	132629	N
6:09	132898	N
6:09	133170	N
6:10	133441	N
6:11	133708	N
6:12	133985	N
6:12	134257	N
6:13	134525	N
6:14	134698	V
6:15	135063	N
6:15	135336	N
6:16	135609	N
6:17	135877	N
6:18	136148	N
6:18	136420	N
6:19	136688	N
6:20	136962	N
6:21	137226	N
6:21	137493	N
6:22	137771	N
6:23	138035	N
6:24	138303	N
6:24	138577	N
6:25	138849	N
6:26	139108	N
6:27	139375	N
6:27	139641	N
6:28	139912	N
6:29	140177	N
6:30	140442	N
6:30	140715	N
6:31	140895	V
6:32	141247	N
6:33	141517	N
6:33	141786	N
6:34	142061	N
6:35	142329	N
6:36	142598	N
6:36	142880	N
6:37	143153	N
6:38	143420	N
6:39	143693	N
6:39	143963	N
6:40	144238	N
6:41	144509	N
6:42	144776	N
6:42	145053	N
6:43	145317	N
6:44	145578	N
6:45	145845	N
6:45	146109	N
6:46	146377	N
6:47	146644	N
6:48	146907	N
6:48	147178	N
6:49	147447	N
6:50	147706	N
6:51	147979	N
6:51	148244	N
6:52	148514	N
6:53	148791	N
6:53	148981	V
6:54	149333	N
6:55	149604	N
6:56	149874	N
6:56	150063	V
6:57	150407	N
6:58	150680	N
6:59	150950	N
7:00	151217	N
7:00	151493	N
7:01	151766	N
7:02	152031	N
7:03	152303	N
7:03	152569	N
7:04	152748	V
7:05	153107	N
7:06	153374	N
7:06	153643	N
7:07	153822	V
7:08	154166	N
7:08	154433	N
7:09	154693	N
7:10	154955	N
7:11	155226	N
7:11	155488	N
7:12	155762	N
7:13	156041	N
7:14	156312	N
7:14	156504	V
7:15	156854	N
7:16	157120	N
7:17	157394	N
7:17	157660	N
7:18	157922	N
7:19	158189	N
7:20	158455	N
7:20	158715	N
7:21	158976	N
7:22	159239	N
7:23	159509	N
7:23	159766	N
7:24	160031	N
7:25	160304	N
7:26	160568	N
7:26	160828	N
7:27	161093	N
7:28	161353	N
7:28	161617	N
7:29	161883	N
7:30	162140	N
7:31	162409	N
7:31	162672	N
7:32	162932	N
7:33	163198	N
7:34	163464	N
7:34	163734	N
7:35	164002	N
7:36	164269	N
7:37	164541	N
7:37	164810	N
7:38	164994	V
7:39	165338	N
7:40	165600	N
7:40	165859	N
7:41	166127	N
7:42	166383	N
7:42	166640	N
7:43	166907	N
7:44	167169	N
7:45	167425	N
7:45	167689	N
7:46	167950	N
7:47	168133	V
7:47	168479	N
7:48	168744	N
7:49	169014	N
7:50	169276	N
7:50	169534	N
7:51	169740	V
7:52	170058	N
7:53	170319	N
7:53	170588	N
7:54	170840	N
7:55	171100	N
7:56	171366	N
7:56	171625	N
7:57	171883	N
7:58	172145	N
7:58	172408	N
7:59	172674	N
8:00	172939	N
8:01	173204	N
8:01	173392	V
8:02	173742	N
8:03	174004	N
8:04	174268	N
8:04	174528	N
8:05	174797	N
8:06	175060	N
8:07	175320	N
8:07	175588	N
8:08	175853	N
8:09	176113	N
8:09	176381	N
8:10	176559	V
8:11	176907	N
8:12	177179	N
8:12	177442	N
8:13	177711	N
8:14	177977	N
8:15	178243	N
8:15	178507	N
8:16	178702	V
8:17	179034	N
8:18	179306	N
8:18	179565	N
8:19	179827	N
8:20	180097	N
8:20	180357	N
8:21	180622	N
8:22	180886	N
8:23	181147	N
8:23	181336	V
8:24	181686	N
8:25	181952	N
8:26	182224	N
8:26	182496	N
8:27	182760	N
8:28	183029	N
8:29	183302	N
8:29	183485	V
8:30	183852	N
8:31	184124	N
8:32	184408	N
8:32	184593	V
8:33	184950	N
8:34	185223	N
8:35	185493	N
8:36	185768	N
8:36	186040	N
8:37	186312	N
8:38	186585	N
8:39	186859	N
8:39	187122	N
8:40	187388	N
8:41	187658	N
8:42	187931	N
8:42	188193	N
8:43	188456	N
8:44	188730	N
8:44	188996	N
8:45	189260	N
8:46	189527	N
8:47	189791	N
8:47	190064	N
8:48	190332	N
8:49	190510	V
8:50	190870	N
8:50	191139	N
8:51	191398	N
8:52	191662	N
8:53	191923	N
8:53	192195	N
8:54	192456	N
8:55	192717	N
8:56	192990	N
8:56	193255	N
8:57	193513	N
8:58	193783	N
8:59	194048	N
8:59	194311	N
9:00	194585	N
9:01	194850	N
9:01	195118	N
9:02	195388	N
9:03	195655	N
9:04	195847	V
9:04	196182	N
9:05	196454	N
9:06	196718	N
9:07	196982	N
9:07	197245	N
9:08	197513	N
9:09	197779	N
9:10	198043	N
9:10	198307	N
9:11	198569	N
9:12	198842	N
9:13	199108	N
9:13	199374	N
9:14	199557	V
9:15	199914	N
9:16	200175	N
9:16	200443	N
9:17	200707	N
9:18	200972	N
9:18	201235	N
9:19	201498	N
9:20	201768	N
9:21	202032	N
9:21	202298	N
9:22	202570	N
9:23	202836	N
9:24	203109	N
9:24	203384	N
9:25	203655	N
9:26	203836	V
9:27	204207	N
9:28	204480	N
9:28	204757	N
9:29	205030	N
9:30	205303	N
9:30	205485	V
9:31	205853	N
9:32	206137	N
9:33	206349	V
9:34	206688	N
9:34	206965	N
9:35	207237	N
9:36	207513	N
9:37	207791	N
9:37	208065	N
9:38	208350	N
9:39	208526	V
9:40	208898	N
9:41	209179	N
9:41	209456	N
9:42	209636	V
9:43	210004	N
9:44	210278	N
9:44	210555	N
9:45	210744	V
9:46	211094	N
9:47	211364	N
9:47	211633	N
9:48	211909	N
9:49	212175	N
9:50	212439	N
9:50	212716	N
9:51	212977	N
9:52	213236	N
9:52	213418	V
9:53	213764	N
9:54	214029	N
9:55	214293	N
9:55	214553	N
9:56	214822	N
9:57	215086	N
9:58	215344	N
9:58	215526	V
9:59	215870	N
10:00	216140	N
10:01	216407	N
10:01	216672	N
10:02	216942	N
10:03	217212	N
10:04	217479	N
10:04	217660	V
10:05	218031	N
10:06	218313	N
10:07	218527	V
10:07	218661	V
10:08	219051	N
10:09	219340	N
10:10	219623	N
10:10	219806	V
10:11	220176	N
10:12	220465	N
10:13	220751	N
10:13	220932	V
10:14	221315	N
10:15	221594	N
10:16	221865	N
10:16	222042	V
10:17	222413	N
10:18	222687	N
10:19	222962	N
10:20	223236	N
10:20	223521	N
10:21	223801	N
10:22	224080	N
10:23	224370	N
10:24	224653	N
10:24	224947	N
10:25	225232	N
10:26	225517	N
10:27	225809	N
10:28	226089	N
10:28	226365	N
10:29	226646	N
10:30	226913	N
10:31	227192	N
10:31	227460	N
10:32	227723	N
10:33	228000	N
10:34	228269	N
10:34	228532	N
10:35	228802	N
10:36	229074	N
10:36	229265	V
10:37	229621	N
10:38	229890	N
10:39	230167	N
10:40	230437	N
10:40	230699	N
10:41	230970	N
10:42	231235	N
10:43	231514	N
10:43	231789	N
10:44	232060	N
10:45	232347	N
10:45	232525	V
10:46	232901	N
10:47	233182	N
10:48	233465	N
10:49	233651	V
10:50	234026	N
10:50	234307	N
10:51	234592	N
10:52	234873	N
10:53	235146	N
10:53	235427	N
10:54	235707	N
10:55	236000	N
10:56	236278	N
10:57	236564	N
10:57	236857	N
10:58	237140	N
10:59	237420	N
11:00	237700	N
11:01	237976	N
11:01	238260	N
11:02	238538	N
11:03	238814	N
11:04	239090	N
11:04	239272	V
11:05	239638	N
11:06	239910	N
11:07	240186	N
11:07	240461	N
11:08	240731	N
11:09	241013	N
11:10	241285	N
11:10	241557	N
11:11	241835	N
11:12	242111	N
11:13	242391	N
11:14	242670	N
11:14	242850	V
11:15	243223	N
11:16	243497	N
11:17	243768	N
11:17	244043	N
11:18	244309	N
11:19	244490	V
11:20	244850	N
11:20	245117	N
11:21	245391	N
11:22	245659	N
11:23	245921	N
11:23	246192	N
11:24	246462	N
11:25	246736	N
11:26	247013	N
11:26	247287	N
11:27	247563	N
11:28	247842	N
11:29	248113	N
11:29	248387	N
11:30	248662	N
11:31	248841	V
11:32	249208	N
11:33	249482	N
11:33	249765	N
11:34	250035	N
11:35	250303	N
11:36	250580	N
11:36	250853	N
11:37	251137	N
11:38	251412	N
11:38	251589	V
11:39	251959	N
11:40	252235	N
11:41	252499	N
11:42	252771	N
11:42	253040	N
11:43	253313	N
11:44	253586	N
11:45	253857	N
11:45	254141	N
11:46	254419	N
11:47	254693	N
11:48	254975	N
11:49	255257	N
11:49	255549	N
11:50	255828	N
11:51	256110	N
11:52	256400	N
11:53	256683	N
11:53	256964	N
11:54	257243	N
11:55	257524	N
11:56	257809	N
11:56	258088	N
11:57	258372	N
11:58	258652	N
11:59	258933	N
12:00	259212	N
12:00	259487	N
12:01	259664	V
12:02	260049	N
12:03	260324	N
12:03	260601	N
12:04	260882	N
12:05	261156	N
12:05	261334	V
12:06	261705	N
12:07	261978	N
12:08	262260	N
12:09	262534	N
12:10	262812	N
12:10	262990	V
12:11	263364	N
12:12	263645	N
12:13	263920	N
12:13	264106	V
12:14	264479	N
12:15	264756	N
12:16	265041	N
12:16	265318	N
12:17	265592	N
12:18	265875	N
12:19	266159	N
12:20	266445	N
12:20	266737	N
12:21	267028	N
12:22	267321	N
12:23	267612	N
12:24	267904	N
12:24	268188	N
12:25	268477	N
12:26	268771	N
12:27	269050	N
12:28	269334	N
12:28	269623	N
12:29	269899	N
12:30	270182	N
12:31	270463	N
12:32	270745	N
12:32	271029	N
12:33	271311	N
12:34	271600	N
12:35	271883	N
12:36	272166	N
12:36	272451	N
12:37	272739	N
12:38	273033	N
12:39	273240	V
12:39	273593	N
12:40	273885	N
12:41	274166	N
12:42	274441	N
12:43	274719	N
12:43	274999	N
12:44	275283	N
12:45	275564	N
12:46	275852	N
12:47	276134	N
12:47	276413	N
12:48	276702	N
12:49	276983	N
12:50	277274	N
12:50	277556	N
12:51	277831	N
12:52	278124	N
12:53	278407	N
12:54	278680	N
12:54	278961	N
12:55	279241	N
12:56	279527	N
12:57	279804	N
12:58	280084	N
12:58	280364	N
12:59	280643	N
13:00	280920	N
13:01	281190	N
13:01	281471	N
13:02	281753	N
13:03	282022	N
13:03	282192	V
13:04	282573	N
13:05	282842	N
13:06	283118	N
13:07	283388	N
13:07	283655	N
13:08	283930	N
13:09	284204	N
13:10	284473	N
13:10	284748	N
13:11	285022	N
13:12	285297	N
13:13	285570	N
13:14	285851	N
13:14	286132	N
13:15	286406	N
13:16	286691	N
13:17	286969	N
13:17	287145	V
13:18	287522	N
13:19	287796	N
13:20	288069	N
13:20	288351	N
13:21	288629	N
13:22	288905	N
13:23	289190	N
13:24	289470	N
13:24	289748	N
13:25	290032	N
13:26	290317	N
13:27	290599	N
13:27	290878	N
13:28	291167	N
13:29	291449	N
13:30	291724	N
13:31	292009	N
13:31	292287	N
13:32	292567	N
13:33	292850	N
13:34	293131	N
13:35	293420	N
13:35	293703	N
13:36	293982	N
13:37	294268	N
13:38	294552	N
13:39	294840	N
13:39	295120	N
13:40	295400	N
13:41	295687	N
13:42	295970	N
13:42	296244	N
13:43	296520	N
13:44	296797	N
13:45	297082	N
13:45	297357	N
13:46	297636	N
13:47	297918	N
13:48	298199	N
13:49	298480	N
13:49	298760	N
13:50	298940	A
13:51	299280	N
13:52	299568	N
13:52	299754	V
13:53	300132	N
13:54	300409	N
13:55	300689	N
13:56	300963	N
13:56	301242	N
13:57	301525	N
13:58	301802	N
13:59	302092	N
13:59	302281	V
14:00	302646	N
14:01	302933	N
14:02	303212	N
14:03	303497	N
14:03	303775	N
14:04	304054	N
14:05	304338	N
14:06	304621	N
14:06	304899	N
14:07	305175	N
14:08	305457	N
14:09	305742	N
14:10	306021	N
14:10	306308	N
14:11	306596	N
14:12	306874	N
14:13	307162	N
14:14	307449	N
14:14	307733	N
14:15	308017	N
14:16	308300	N
14:17	308585	N
14:17	308868	N
14:18	309143	N
14:19	309418	N
14:20	309695	N
14:21	309979	N
14:21	310253	N
14:22	310525	N
14:23	310810	N
14:24	311084	N
14:24	311355	N
14:25	311633	N
14:26	311905	N
14:27	312184	N
14:27	312455	N
14:28	312728	N
14:29	313003	N
14:30	313276	N
14:30	313546	N
14:31	313812	N
14:32	314082	N
14:33	314359	N
14:33	314628	N
14:34	314894	N
14:35	315174	N
14:36	315448	N
14:36	315716	N
14:37	315994	N
14:38	316272	N
14:39	316554	N
14:40	316830	N
14:40	317107	N
14:41	317389	N
14:42	317668	N
14:43	317945	N
14:43	318219	N
14:44	318497	N
14:45	318784	N
14:46	319059	N
14:47	319339	N
14:47	319624	N
14:48	319904	N
14:49	320183	N
14:50	320463	N
14:50	320743	N
14:51	321027	N
14:52	321306	N
14:53	321587	N
14:54	321871	N
14:54	322147	N
14:55	322425	N
14:56	322698	N
14:57	322977	N
14:57	323255	N
14:58	323526	N
14:59	323804	N
15:00	324078	N
15:00	324352	N
15:01	324630	N
15:02	324903	N
15:03	325181	N
15:04	325458	N
15:04	325731	N
15:05	326010	N
15:06	326288	N
15:07	326558	N
15:07	326829	N
15:08	327104	N
15:09	327381	N
15:10	327658	N
15:10	327932	N
15:11	328216	N
15:12	328493	N
15:13	328766	N
15:14	329051	N
15:14	329326	N
15:15	329606	N
15:16	329886	N
15:17	330158	N
15:17	330448	N
15:18	330728	N
15:19	331004	N
15:20	331283	N
15:21	331563	N
15:21	331846	N
15:22	332121	N
15:23	332402	N
15:24	332685	N
15:24	332966	N
15:25	333249	N
15:26	333522	N
15:27	333802	N
15:28	334080	N
15:28	334352	N
15:29	334629	N
15:30	334906	N
15:31	335176	N
15:31	335449	N
15:32	335725	N
15:33	336000	N
15:34	336278	N
15:34	336554	N
15:35	336841	N
15:36	337123	N
15:37	337398	N
15:38	337689	N
15:38	337968	N
15:39	338254	N
15:40	338535	N
15:41	338810	N
15:41	339096	N
15:42	339377	N
15:43	339648	N
15:44	339923	N
15:45	340202	N
15:45	340482	N
15:46	340755	N
15:47	341035	N
15:48	341312	N
15:48	341588	N
15:49	341763	V
15:50	342130	N
15:51	342407	N
15:51	342684	N
15:52	342952	N
15:53	343221	N
15:54	343496	N
15:54	343764	N
15:55	343942	V
15:56	344291	N
15:57	344558	N
15:57	344830	N
15:58	345094	N
15:59	345361	N
16:00	345630	N
16:00	345902	N
16:01	346172	N
16:02	346441	N
16:03	346712	N
16:03	346992	N
16:04	347264	N
16:05	347534	N
16:06	347817	N
16:06	348086	N
16:07	348352	N
16:08	348626	N
16:09	348901	N
16:09	349180	N
16:10	349454	N
16:11	349729	N
16:12	350010	N
16:13	350288	N
16:13	350562	N
16:14	350836	N
16:15	351109	N
16:16	351386	N
16:16	351656	N
16:17	351924	N
16:18	352204	N
16:19	352470	N
16:19	352646	V
16:20	353001	N
16:21	353268	N
16:22	353539	N
16:22	353805	N
16:23	354071	N
16:24	354347	N
16:25	354618	N
16:25	354885	N
16:26	355154	N
16:27	355424	N
16:28	355696	N
16:28	355965	N
16:29	356229	N
16:30	356507	N
16:31	356774	N
16:31	357035	N
16:32	357309	N
16:33	357488	V
16:34	357846	N
16:34	358121	N
16:35	358390	N
16:36	358666	N
16:37	358937	N
16:37	359205	N
16:38	359476	N
16:39	359743	N
16:40	360015	N
16:40	360124	~
16:40	360251	N
16:41	360550	N
16:42	360826	N
16:43	361094	N
16:43	361268	~
16:43	361356	N
16:44	361630	N
16:45	361897	N
16:46	362171	N
16:46	362443	N
16:47	362712	N
16:48	362990	N
16:49	363265	N
16:49	363530	N
16:50	363803	N
16:51	364075	N
16:52	364350	N
16:52	364619	N
16:53	364886	N
16:54	365163	N
16:55	365429	N
16:55	365690	N
16:56	365964	N
16:57	366225	N
16:58	366498	N
16:58	366770	N
16:59	367038	N
17:00	367318	N
17:01	367589	N
17:01	367857	N
17:02	368131	N
17:03	368402	N
17:04	368676	N
17:04	368942	N
17:05	369211	N
17:06	369489	N
17:07	369760	N
17:07	370019	N
17:08	370293	N
17:09	370562	N
17:10	370839	N
17:10	371107	N
17:11	371373	N
17:12	371652	N
17:13	371926	N
17:13	372191	N
17:14	372467	N
17:15	372737	N
17:16	373011	N
17:16	373282	N
17:17	373549	N
17:18	373830	N
17:19	374098	N
17:19	374269	V
17:20	374636	N
17:21	374905	N
17:22	375176	N
17:22	375444	N
17:23	375710	N
17:24	375987	N
17:25	376259	N
17:25	376523	N
17:26	376797	N
17:27	377071	N
17:28	377343	N
17:28	377526	V
17:29	377885	N
17:30	378164	N
17:31	378428	N
17:31	378690	N
17:32	378964	N
17:33	379228	N
17:34	379498	N
17:34	379771	N
17:35	380038	N
17:36	380310	N
17:37	380583	N
17:37	380853	N
17:38	381122	N
17:39	381304	V
17:40	381661	N
17:40	381935	N
17:41	382201	N
17:42	382470	N
17:43	382737	N
17:43	383003	N
17:44	383274	N
17:45	383533	N
17:46	383802	N
17:46	384078	N
17:47	384344	N
17:48	384614	N
17:49	384895	N
17:49	385074	V
17:50	385439	N
17:51	385714	N
17:52	385984	N
17:52	386261	N
17:53	386528	N
17:54	386797	N
17:55	387070	N
17:55	387336	N
17:56	387601	N
17:57	387864	N
17:58	388134	N
17:58	388410	N
17:59	388677	N
18:00	388853	V
18:01	389222	N
18:01	389497	N
18:02	389762	N
18:03	390032	N
18:04	390298	N
18:04	390567	N
18:05	390835	N
18:06	391100	N
18:07	391374	N
18:07	391643	N
18:08	391910	N
18:09	392180	N
18:10	392449	N
18:10	392633	V
18:11	392994	N
18:12	393264	N
18:13	393540	N
18:13	393813	N
18:14	394079	N
18:15	394346	N
18:16	394617	N
18:16	394894	N
18:17	395163	N
18:18	395434	N
18:19	395712	N
18:19	395985	N
18:20	396254	N
18:21	396525	N
18:22	396796	N
18:22	397075	N
18:23	397339	N
18:24	397609	N
18:25	397887	N
18:26	398161	N
18:26	398431	N
18:27	398611	V
18:28	398966	N
18:29	399244	N
18:29	399513	N
18:30	399780	N
18:31	400048	N
18:31	400313	N
18:32	400580	N
18:33	400842	N
18:34	401107	N
18:34	401378	N
18:35	401639	N
18:36	401905	N
18:37	402176	N
18:37	402445	N
18:38	402708	N
18:39	402975	N
18:40	403241	N
18:40	403517	N
18:41	403788	N
18:42	404059	N
18:43	404336	N
18:43	404610	N
18:44	404884	N
18:45	405056	V
18:46	405429	N
18:46	405709	N
18:47	405977	N
18:48	406250	N
18:49	406529	N
18:50	406806	N
18:50	407077	N
18:51	407254	V
18:52	407614	N
18:53	407895	N
18:53	408166	N
18:54	408431	N
18:55	408706	N
18:56	408977	N
18:56	409238	N
18:57	409504	N
18:58	409775	N
18:58	409955	V
18:59	410313	N
19:00	410581	N
19:01	410858	N
19:02	411128	N
19:02	411395	N
19:03	411669	N
19:04	411937	N
19:04	412117	V
19:05	412482	N
19:06	412749	N
19:07	413025	N
19:08	413295	N
19:08	413559	N
19:09	413827	N
19:10	414093	N
19:11	414363	N
19:11	414633	N
19:12	414902	N
19:13	415178	N
19:14	415449	N
19:14	415716	N
19:15	415992	N
19:16	416262	N
19:17	416538	N
19:17	416815	N
19:18	417084	N
19:19	417364	N
19:20	417635	N
19:20	417901	N
19:21	418173	N
19:22	418442	N
19:23	418715	N
19:23	418987	N
19:24	419257	N
19:25	419533	N
19:25	419711	V
19:26	420067	N
19:27	420341	N
19:28	420607	N
19:29	420881	N
19:29	421153	N
19:30	421415	N
19:31	421688	N
19:32	421956	N
19:32	422215	N
19:33	422484	N
19:34	422751	N
19:35	423020	N
19:35	423286	N
19:36	423551	N
19:37	423828	N
19:38	424096	N
19:38	424361	N
19:39	424635	N
19:40	424901	N
19:40	425081	V
19:41	425443	N
19:42	425708	N
19:43	425978	N
19:44	426243	N
19:44	426503	N
19:45	426770	N
19:46	427038	N
19:46	427308	N
19:47	427580	N
19:48	427850	N
19:49	428130	N
19:50	428403	N
19:50	428673	N
19:51	428952	N
19:52	429222	N
19:53	429506	N
19:53	429783	N
19:54	429955	V
19:55	430331	N
19:56	430606	N
19:56	430873	N
19:57	431147	N
19:58	431415	N
19:59	431691	N
19:59	431958	N
20:00	432226	N
20:01	432502	N
20:02	432775	N
20:02	433042	N
20:03	433314	N
20:04	433585	N
20:04	433763	V
20:05	434130	N
20:06	434397	N
20:07	434676	N
20:08	434946	N
20:08	435205	N
20:09	435474	N
20:10	435740	N
20:11	436011	N
20:11	436277	N
20:12	436546	N
20:13	436822	N
20:13	437002	V
20:14	437357	N
20:15	437627	N
20:16	437892	N
20:17	438166	N
20:17	438435	N
20:18	438697	N
20:19	438974	N
20:20	439240	N
20:20	439504	N
20:21	439775	N
20:22	440043	N
20:23	440311	N
20:23	440583	N
20:24	440849	N
20:25	441119	N
20:26	441388	N
20:26	441656	N
20:27	441924	N
20:28	442184	N
20:29	442452	N
20:29	442725	N
20:30	442986	N
20:31	443251	N
20:32	443520	N
20:32	443785	N
20:33	444048	N
20:34	444314	N
20:34	444576	N
20:35	444846	N
20:36	445110	N
20:37	445376	N
20:37	445650	N
20:38	445921	N
20:39	446184	N
20:40	446447	N
20:40	446713	N
20:41	446981	N
20:42	447244	N
20:43	447505	N
20:43	447778	N
20:44	448040	N
20:45	448297	N
20:46	448566	N
20:46	448827	N
20:47	449094	N
20:48	449361	N
20:48	449627	N
20:49	449898	N
20:50	450165	N
20:51	450426	N
20:51	450692	N
20:52	450955	N
20:53	451218	N
20:54	451484	N
20:54	451743	N
20:55	452010	N
20:56	452270	N
20:57	452531	N
20:57	452795	N
20:58	453053	N
20:59	453315	N
20:59	453584	N
21:00	453848	N
21:01	454021	V
21:02	454379	N
21:02	454648	N
21:03	454910	N
21:04	455170	N
21:05	455434	N
21:05	455700	N
21:06	455959	N
21:07	456220	N
21:08	456484	N
21:08	456746	N
21:09	457005	N
21:10	457269	N
21:10	457528	N
21:11	457706	V
21:12	458058	N
21:13	458322	N
21:13	458592	N
21:14	458858	N
21:15	459118	N
21:16	459380	N
21:16	459642	N
21:17	459910	N
21:18	460172	N
21:18	460432	N
21:19	460706	N
21:20	460882	V
21:21	461227	N
21:21	461498	N
21:22	461761	N
21:23	462028	N
21:24	462292	N
21:24	462557	N
21:25	462829	N
21:26	463006	V
21:27	463352	N
21:27	463620	N
21:28	463882	N
21:29	464145	N
21:30	464409	N
21:30	464668	N
21:31	464935	N
21:32	465195	N
21:32	465457	N
21:33	465630	V
21:34	465982	N
21:35	466247	N
21:35	466513	N
21:36	466777	N
21:37	467039	N
21:38	467309	N
21:38	467577	N
21:39	467838	N
21:40	468099	N
21:41	468363	N
21:41	468631	N
21:42	468891	N
21:43	469149	N
21:43	469417	N
21:44	469679	N
21:45	469937	N
21:46	470206	N
21:46	470468	N
21:47	470736	N
21:48	471006	N
21:49	471269	N
21:49	471541	N
21:50	471809	N
21:51	472071	N
21:52	472334	N
21:52	472508	V
21:53	472860	N
21:54	473133	N
21:54	473392	N
21:55	473659	N
21:56	473924	N
21:57	474190	N
21:57	474460	N
21:58	474722	N
21:59	474990	N
22:00	475260	N
22:00	475526	N
22:01	475791	N
22:02	476067	N
22:03	476336	N
22:03	476597	N
22:04	476865	N
22:05	477134	N
22:06	477406	N
22:06	477673	N
22:07	477940	N
22:08	478211	N
22:08	478386	V
22:09	478744	N
22:10	479010	N
22:11	479277	N
22:12	479547	N
22:12	479812	N
22:13	480077	N
22:14	480355	N
22:15	480623	N
22:15	480884	N
22:16	481154	N
22:17	481424	N
22:18	481697	N
22:18	481963	N
22:19	482144	V
22:20	482498	N
22:21	482769	N
22:21	483030	N
22:22	483299	N
22:23	483565	N
22:23	483839	N
22:24	484108	N
22:25	484371	N
22:26	484650	N
22:26	484918	N
22:27	485179	N
22:28	485450	N
22:29	485722	N
22:29	485904	V
22:30	486260	N
22:31	486526	N
22:32	486797	N
22:32	487065	N
22:33	487328	N
22:34	487532	~
22:34	487592	N
22:35	487855	N
22:35	488126	N
22:36	488388	N
22:37	488586	V
22:38	488923	N
22:38	489191	N
22:39	489452	N
22:40	489720	N
22:41	489988	N
22:41	490260	N
22:42	490524	N
22:43	490787	N
22:44	491057	N
22:44	491321	N
22:45	491457	~
22:45	491580	N
22:46	491850	N
22:46	492109	N
22:47	492377	N
22:48	492644	N
22:49	492908	N
22:49	493185	N
22:50	493452	N
22:51	493714	N
22:52	493985	N
22:52	494251	N
22:53	494430	V
22:54	494786	N
22:55	495054	N
22:55	495325	N
22:56	495586	N
22:57	495846	N
22:58	496118	N
22:58	496377	N
22:59	496646	N
23:00	496918	N
23:01	497181	N
23:01	497451	N
23:02	497630	V
23:03	497985	N
23:04	498252	N
23:04	498519	N
23:05	498779	N
23:06	499052	N
23:06	499311	N
23:07	499573	N
23:08	499838	N
23:09	500101	N
23:09	500365	N
23:10	500548	~
23:10	500625	N
23:11	500886	N
23:12	501156	N
23:12	501421	N
23:13	501686	N
23:14	501967	N
23:15	502231	N
23:15	502494	N
23:16	502770	N
23:17	503034	N
23:18	503304	N
23:18	503573	N
23:19	503762	~
23:19	503841	N
23:20	504112	N
23:21	504382	N
23:21	504649	N
23:22	504918	N
23:23	505187	N
23:23	505376	~
23:24	505459	N
23:24	505723	N
23:25	505996	N
23:25	506110	~
23:26	506274	N
23:27	506540	N
23:27	506802	N
23:28	507073	N
23:29	507338	N
23:30	507603	N
23:30	507870	N
23:31	508133	N
23:32	508396	N
23:32	508660	N
23:33	508921	N
23:34	509183	N
23:35	509441	N
23:35	509704	N
23:36	509974	N
23:37	510239	N
23:38	510513	N
23:38	510788	N
23:39	511063	N
23:40	511337	N
23:40	511512	V
23:41	511878	N
23:42	512156	N
23:43	512419	N
23:44	512682	N
23:44	512954	N
23:45	513221	N
23:46	513488	N
23:47	513750	N
23:47	514020	N
23:48	514292	N
23:49	514556	N
23:50	514826	N
23:50	515097	N
23:51	515365	N
23:52	515633	N
23:53	515899	N
23:53	516167	N
23:54	516441	N
23:55	516706	N
23:55	516876	V
23:56	517241	N
23:57	517513	N
23:58	517781	N
23:59	518045	N
23:59	518314	N
24:00	518587	N
24:01	518854	N
24:02	519129	N
24:02	519401	N
24:03	519666	N
24:04	519935	N
24:04	520198	N
24:05	520460	N
24:06	520725	N
24:07	520980	N
24:07	521235	N
24:08	521498	N
24:09	521762	N
24:10	522020	N
24:10	522194	V
24:11	522538	N
24:12	522807	N
24:12	523067	N
24:13	523326	N
24:14	523596	N
24:15	523854	N
24:15	524104	N
24:16	524362	N
24:17	524616	N
24:17	524874	N
24:18	525130	N
24:19	525386	N
24:20	525646	N
24:20	525903	N
24:21	526161	N
24:22	526424	N
24:22	526678	N
24:23	526943	N
24:24	527209	N
24:25	527469	N
24:25	527737	N
24:26	527927	V
24:27	528263	N
24:28	528524	N
24:28	528781	N
24:29	529039	N
24:30	529301	N
24:30	529557	N
24:31	529813	N
24:32	530077	N
24:33	530337	N
24:33	530593	N
24:34	530854	N
24:35	531114	N
24:36	531380	N
24:36	531641	N
24:37	531905	N
24:38	532173	N
24:38	532436	N
24:39	532701	N
24:40	532965	N
24:41	533223	N
24:41	533483	N
24:42	533753	N
24:43	534011	N
24:44	534267	N
24:44	534534	N
24:45	534797	N
24:46	535055	N
24:46	535313	N
24:47	535575	N
24:48	535839	N
24:49	536097	N
24:49	536357	N
24:50	536626	N
24:51	536885	N
24:52	537142	N
24:52	537407	N
24:53	537667	N
24:54	537931	N
24:54	538189	N
24:55	538446	N
24:56	538706	N
24:57	538964	N
24:57	539222	N
24:58	539481	N
24:59	539739	N
25:00	540004	N
25:00	540273	N
25:01	540539	N
25:02	540812	N
25:03	541086	N
25:03	541361	N
25:04	541629	N
25:05	541895	N
25:05	542088	V
25:06	542435	N
25:07	542692	N
25:08	542948	N
25:08	543216	N
25:09	543481	N
25:10	543740	N
25:11	544000	N
25:11	544264	N
25:12	544531	N
25:13	544794	N
25:14	545057	N
25:14	545324	N
25:15	545590	N
25:16	545849	N
25:16	546115	N
25:17	546379	N
25:18	546649	N
25:19	546911	N
25:19	547170	N
25:20	547444	N
25:21	547709	N
25:22	547965	N
25:22	548226	N
25:23	548490	N
25:24	548755	N
25:25	549022	N
25:25	549285	N
25:26	549558	N
25:27	549824	N
25:28	550082	N
25:28	550349	N
25:29	550535	V
25:30	550879	N
25:30	551146	N
25:31	551405	N
25:32	551676	N
25:33	551946	N
25:33	552205	N
25:34	552475	N
25:35	552648	V
25:36	553025	N
25:36	553298	N
25:37	553569	N
25:38	553849	N
25:39	554118	N
25:39	554384	N
25:40	554658	N
25:41	554925	N
25:42	555197	N
25:42	555459	N
25:43	555721	N
25:44	555989	N
25:45	556252	N
25:45	556506	N
25:46	556770	N
25:47	557031	N
25:48	557295	N
25:48	557557	N
25:49	557819	N
25:50	558082	N
25:50	558340	N
25:51	558527	V
25:51	558671	V
25:52	559042	N
25:53	559304	N
25:54	559572	N
25:55	559828	N
25:55	560084	N
25:56	560350	N
25:57	560609	N
25:57	560864	N
25:58	561128	N
25:59	561391	N
26:00	561655	N
26:00	561925	N
26:01	562192	N
26:02	562464	N
26:03	562727	N
26:03	562994	N
26:04	563259	N
26:05	563518	N
26:06	563782	N
26:06	563967	V
26:07	564309	N
26:08	564571	N
26:09	564840	N
26:09	565103	N
26:10	565364	N
26:11	565627	N
26:11	565888	N
26:12	566149	N
26:13	566412	N
26:13	566607	V
26:14	566934	N
26:15	567197	N
26:16	567448	N
26:16	567710	N
26:17	567969	N
26:18	568234	N
26:19	568495	N
26:19	568756	N
26:20	569024	N
26:21	569294	N
26:22	569557	N
26:22	569826	N
26:23	570096	N
26:24	570361	N
26:25	570635	N
26:25	570903	N
26:26	571172	N
26:27	571440	N
26:28	571702	N
26:28	571967	N
26:29	572227	N
26:30	572494	N
26:30	572758	N
26:31	573017	N
26:32	573281	N
26:33	573548	N
26:33	573808	N
26:34	574070	N
26:35	574333	N
26:35	574508	V
26:36	574863	N
26:37	575124	N
26:38	575384	N
26:39	575651	N
26:39	575913	N
26:40	576170	N
26:41	576427	N
26:41	576686	N
26:42	576952	N
26:43	577206	N
26:44	577463	N
26:44	577733	N
26:45	577993	N
26:46	578249	N
26:46	578514	N
26:47	578778	N
26:48	579041	N
26:49	579307	N
26:49	579572	N
26:50	579847	N
26:51	580115	N
26:52	580375	N
26:52	580641	N
26:53	580903	N
26:54	581174	N
26:55	581430	N
26:55	581684	N
26:56	581952	N
26:57	582213	N
26:57	582466	N
26:58	582731	N
26:59	582993	N
27:00	583255	N
27:00	583521	N
27:01	583696	V
27:02	584049	N
27:03	584311	N
27:03	584563	N
27:04	584820	N
27:05	585073	N
27:05	585331	N
27:06	585594	N
27:07	585845	N
27:08	586100	N
27:08	586365	N
27:09	586623	N
27:10	586875	N
27:10	587134	N
27:11	587395	N
27:12	587657	N
27:13	587919	N
27:13	588177	N
27:14	588443	N
27:15	588703	N
27:15	588955	N
27:16	589212	N
27:17	589470	N
27:18	589728	N
27:18	589989	N
27:19	590241	N
27:20	590495	N
27:20	590754	N
27:21	591005	N
27:22	591257	N
27:23	591508	N
27:23	591757	N
27:24	592012	N
27:25	592268	N
27:25	592515	N
27:26	592773	N
27:27	593025	N
27:27	593276	N
27:28	593528	N
27:29	593779	N
27:30	594035	N
27:30	594294	N
27:31	594543	N
27:32	594796	N
27:32	595059	N
27:33	595313	N
27:34	595567	N
27:35	595824	N
27:35	596080	N
27:36	596339	N
27:37	596600	N
27:37	596858	N
27:38	597120	N
27:39	597381	N
27:40	597639	N
27:40	597899	N
27:41	598156	N
27:42	598418	N
27:43	598681	N
27:43	598935	N
27:44	599188	N
27:45	599454	N
27:45	599709	N
27:46	599962	N
27:47	600217	N
27:47	600471	N
27:48	600733	N
27:49	600990	N
27:50	601245	N
27:50	601510	N
27:51	601764	N
27:52	602015	N
27:52	602272	N
27:53	602523	N
27:54	602779	N
27:55	603034	N
27:55	603285	N
27:56	603540	N
27:57	603800	N
27:57	604054	N
27:58	604307	N
27:59	604564	N
28:00	604820	N
28:00	605088	N
28:01	605350	N
28:02	605606	N
28:02	605871	N
28:03	606134	N
28:04	606388	N
28:05	606649	N
28:05	606908	N
28:06	607169	N
28:07	607422	N
28:07	607675	N
28:08	607942	N
28:09	608196	N
28:10	608444	N
28:10	608704	N
28:11	608960	N
28:12	609214	N
28:12	609475	N
28:13	609734	N
28:14	609996	N
28:15	610260	N
28:15	610519	N
28:16	610779	N
28:17	611036	N
28:18	611301	N
28:18	611567	N
28:19	611823	N
28:20	612082	N
28:20	612348	N
28:21	612607	N
28:22	612866	N
28:23	613124	N
28:23	613383	N
28:24	613646	N
28:25	613904	N
28:26	614161	N
28:26	614425	N
28:27	614687	N
28:28	614939	N
28:28	615197	N
28:29	615453	N
28:30	615713	N
28:31	615968	N
28:31	616224	N
28:32	616486	N
28:33	616744	N
28:33	616998	N
28:34	617259	N
28:35	617515	N
28:36	617765	N
28:36	618027	N
28:37	618282	N
28:38	618536	N
28:38	618795	N
28:39	619055	N
28:40	619302	N
28:40	619557	N
28:41	619814	N
28:42	620080	N
28:43	620334	N
28:43	620590	N
28:44	620850	N
28:45	621108	N
28:46	621360	N
28:46	621617	N
28:47	621870	N
28:48	622127	N
28:48	622389	N
28:49	622646	N
28:50	622903	N
28:51	623169	N
28:51	623436	N
28:52	623692	N
28:53	623956	N
28:53	624219	N
28:54	624486	N
28:55	624746	N
28:55	624920	V
28:56	625271	N
28:57	625531	N
28:58	625785	N
28:59	626047	N
28:59	626303	N
29:00	626561	N
29:01	626826	N
29:01	627085	N
29:02	627349	N
29:03	627613	N
29:04	627873	N
29:04	628133	N
29:05	628392	N
29:06	628655	N
29:06	628918	N
29:07	629173	N
29:08	629430	N
29:09	629693	N
29:09	629950	N
29:10	630207	N
29:11	630466	N
29:12	630722	N
29:12	630986	N
29:13	631245	N
29:14	631504	N
29:14	631773	N
29:15	632033	N
29:16	632285	N
29:17	632547	N
29:17	632802	N
29:18	633058	N
29:19	633312	N
29:19	633569	N
29:20	633831	N
29:21	634091	N
29:22	634349	N
29:22	634609	N
29:23	634866	N
29:24	635127	N
29:24	635396	N
29:25	635653	N
29:26	635917	N
29:27	636188	N
29:27	636454	N
29:28	636714	N
29:29	636976	N
29:30	637239	N
29:30	637503	N
29:31	637760	N
29:32	638020	N
29:33	638280	N
29:33	638536	N
29:34	638792	N
29:35	639048	N
29:35	639303	N
29:36	639567	N
29:37	639830	N
29:38	640088	N
29:38	640355	N
29:39	640621	N
29:40	640875	N
29:40	641137	N
29:41	641394	N
29:42	641658	N
29:43	641917	N
29:43	642177	N
29:44	642447	N
29:45	642706	N
29:46	642963	N
29:46	643228	N
29:47	643488	N
29:48	643748	N
29:48	644013	N
29:49	644272	N
29:50	644537	N
29:51	644801	N
29:51	645055	N
29:52	645311	N
29:53	645567	N
29:53	645826	N
29:54	646090	N
29:55	646338	N
29:56	646594	N
29:56	646856	N
29:57	647113	N
29:58	647367	N
29:58	647623	N
29:59	647879	N
30:00	648143	N
30:01	648404	N
30:01	648662	N
30:02	648932	N
30:03	649191	N
30:04	649442	N
30:04	649701	N
30:05	649957	N
