0:00	189	N
0:01	598	N
0:02	1006	N
0:03	1408	N
0:05	1834	N
0:06	2249	N
0:07	2677	N
0:08	3105	N
0:09	3529	N
0:10	3958	N
0:12	4382	N
0:13	4800	N
0:14	5239	N
0:15	5673	N
0:16	6098	N
0:18	6550	N
0:19	6983	N
0:20	7431	N
0:21	7871	N
0:23	8320	N
0:24	8768	N
0:25	9209	N
0:26	9650	N
0:27	10079	N
0:29	10519	N
0:30	10929	N
0:31	11346	N
0:32	11760	N
0:33	12179	N
0:35	12622	N
0:36	13065	N
0:37	13501	N
0:38	13954	N
0:39	14388	N
0:41	14841	N
0:42	15283	N
0:43	15714	N
0:44	16152	N
0:46	16580	N
0:47	17022	N
0:48	17452	N
0:49	17891	N
0:50	18347	N
0:52	18774	N
0:53	19226	N
0:54	19674	N
0:55	20107	N
0:57	20543	N
0:58	20983	N
0:59	21420	N
1:00	21855	N
1:01	22299	N
1:03	22735	N
1:04	23171	N
1:05	23618	N
1:06	24047	N
1:08	24488	N
1:09	24903	N
1:10	25335	N
1:11	25756	N
1:12	26172	N
1:13	26613	N
1:15	27036	N
1:16	27476	N
1:17	27896	N
1:18	28337	N
1:19	28778	N
1:21	29202	N
1:22	29647	N
1:23	30050	N
1:24	30486	N
1:25	30910	N
1:27	31345	N
1:28	31787	N
1:29	32230	N
1:30	32684	N
1:31	33117	N
1:33	33570	N
1:34	34005	N
1:35	34456	N
1:36	34889	N
1:38	35328	N
1:39	35760	N
1:40	36185	N
1:41	36629	N
1:42	37068	N
1:44	37502	N
1:45	37944	N
1:46	38374	N
1:47	38802	N
1:48	39220	N
1:50	39660	N
1:51	40084	N
1:52	40516	N
1:53	40957	N
1:54	41390	N
1:56	41829	N
1:57	42252	N
1:58	42693	N
1:59	43116	N
2:00	43543	N
2:02	43968	N
2:03	44382	N
2:04	44811	N
2:05	45230	N
2:06	45663	N
2:08	46093	N
2:09	46523	N
2:10	46968	N
2:11	47398	N
2:12	47824	N
2:14	48261	N
2:15	48688	N
2:16	49134	N
2:17	49571	N
2:18	50006	N
2:20	50439	N
2:21	50862	N
2:22	51302	N
2:23	51721	N
2:24	52150	N
2:26	52577	N
2:27	52984	N
2:28	53415	N
2:29	53840	N
2:30	54268	N
2:31	54696	N
2:33	55125	N
2:34	55559	N
2:35	55987	N
2:36	56403	N
2:37	56826	N
2:39	57244	N
2:40	57660	N
2:41	58102	N
2:42	58536	N
2:43	59000	N
2:45	59445	N
2:46	59897	N
2:47	60341	N
2:48	60785	N
2:50	61239	N
2:51	61678	N
2:52	62133	N
2:53	62566	N
2:55	63011	N
2:56	63436	N
2:57	63868	N
2:58	64300	N
2:59	64715	N
3:00	65137	N
3:02	65565	N
3:03	65975	N
3:04	66400	N
3:05	66819	N
3:06	67249	N
3:07	67668	N
3:09	68093	N
3:10	68527	N
3:11	68936	N
3:12	69365	N
3:13	69793	N
3:15	70216	N
3:16	70657	N
3:17	71073	N
3:18	71508	N
3:19	71926	N
3:20	72359	N
3:22	72792	N
3:23	73214	N
3:24	73653	N
3:25	74081	N
3:26	74515	N
3:28	74952	N
3:29	75376	N
3:30	75802	N
3:31	76218	N
3:32	76635	N
3:34	77068	N
3:35	77474	N
3:36	77897	N
3:37	78319	N
3:38	78725	N
3:39	79145	N
3:40	79553	N
3:42	79969	N
3:43	80381	N
3:44	80794	N
3:45	81225	N
3:46	81641	N
3:47	82072	N
3:49	82494	N
3:50	82927	N
3:51	83350	N
3:52	83775	N
3:53	84205	N
3:55	84626	N
3:56	85042	N
3:57	85467	N
3:58	85879	N
3:59	86304	N
4:00	86724	N
4:02	87155	N
4:03	87591	N
4:04	88020	N
4:05	88472	N
4:06	88899	N
4:08	89334	N
4:09	89767	N
4:10	90191	N
4:11	90637	N
4:12	91063	N
4:14	91506	N
4:15	91932	N
4:16	92380	N
4:17	92823	N
4:19	93264	N
4:20	93697	N
4:21	94140	N
4:22	94573	N
4:23	95001	N
4:25	95437	N
4:26	95850	N
4:27	96282	N
4:28	96706	N
4:29	97130	N
4:30	97558	N
4:32	97974	N
4:33	98400	N
4:34	98819	N
4:35	99236	N
4:36	99670	N
4:38	100100	N
4:39	100534	N
4:40	100981	N
4:41	101414	N
4:42	101859	N
4:44	102279	N
4:45	102706	N
4:46	103137	N
4:47	103554	N
4:48	103983	N
4:50	104404	N
4:51	104831	N
4:52	105269	N
4:53	105696	N
4:54	106132	N
4:55	106555	N
4:57	106986	N
4:58	107415	N
4:59	107838	N
5:00	108265	N
5:01	108695	N
5:03	109116	N
5:04	109553	N
5:05	109972	N
5:06	110403	N
5:07	110821	N
5:09	111246	N
5:10	111672	N
5:11	112085	N
5:12	112512	N
5:13	112930	N
5:14	113350	N
5:16	113774	N
5:17	114196	N
5:18	114634	N
5:19	115052	N
5:20	115476	N
5:21	115896	N
5:23	116308	N
5:24	116726	N
5:25	117154	N
5:26	117568	N
5:27	117994	N
5:28	118409	N
5:30	118835	N
5:31	119258	N
5:32	119678	N
5:33	120106	N
5:34	120521	N
5:35	120951	N
5:37	121359	N
5:38	121773	N
5:39	122190	N
5:40	122600	N
5:41	123028	N
5:42	123443	N
5:44	123873	N
5:45	124296	N
5:46	124710	N
5:47	125132	N
5:48	125554	N
5:49	125970	N
5:51	126399	N
5:52	126821	N
5:53	127243	N
5:54	127664	N
5:55	128074	N
5:56	128501	N
5:58	128910	N
5:59	129326	N
6:00	129741	N
6:01	130149	N
6:02	130573	N
6:03	130990	N
6:05	131422	N
6:06	131852	N
6:07	132273	N
6:08	132704	N
6:09	133111	N
6:10	133532	N
6:12	133940	N
6:13	134356	N
6:14	134782	N
6:15	135202	N
6:16	135637	N
6:17	136066	N
6:19	136502	N
6:20	136942	N
6:21	137359	N
6:22	137788	N
6:23	138232	N
6:25	138660	N
6:26	139103	N
6:27	139529	N
6:28	139967	N
6:30	140415	N
6:31	140831	N
6:32	141279	N
6:33	141706	N
6:34	142138	N
6:35	142555	N
6:37	142974	N
6:38	143401	N
6:39	143818	N
6:40	144246	N
6:41	144672	N
6:43	145110	N
6:44	145549	N
6:45	145995	N
6:46	146440	N
6:47	146868	N
6:49	147303	N
6:50	147738	N
6:51	148156	N
6:52	148587	N
6:53	149001	N
6:55	149434	N
6:56	149875	N
6:57	150303	N
6:58	150755	N
6:59	151182	N
7:01	151623	N
7:02	152055	N
7:03	152486	N
7:04	152928	N
7:05	153358	N
7:07	153788	N
7:08	154234	N
7:09	154657	N
7:10	155087	N
7:11	155512	N
7:13	155932	N
7:14	156364	N
7:15	156777	N
7:16	157209	N
7:17	157628	N
7:19	158056	N
7:20	158493	N
7:21	158909	N
7:22	159343	N
7:23	159765	N
7:24	160196	N
7:26	160623	N
7:27	161051	N
7:28	161479	N
7:29	161888	N
7:30	162315	N
7:32	162734	N
7:33	163158	N
7:34	163582	N
7:35	164001	N
7:36	164421	N
7:37	164837	N
7:39	165245	N
7:40	165679	N
7:41	166096	N
7:42	166526	N
7:43	166957	N
7:44	167388	N
7:46	167816	N
7:47	168243	N
7:48	168680	N
7:49	169088	N
7:50	169511	N
7:52	169928	N
7:53	170339	N
7:54	170768	N
7:55	171188	N
7:56	171621	N
7:57	172036	N
7:59	172473	N
8:00	172894	N
8:01	173304	N
8:02	173728	N
8:03	174150	N
8:04	174585	N
8:06	175013	N
8:07	175451	N
8:08	175886	N
8:09	176302	N
8:10	176723	N
8:12	177133	N
8:13	177551	N
8:14	177962	N
8:15	178378	N
8:16	178799	N
8:17	179222	N
8:19	179654	N
8:20	180084	N
8:21	180512	N
8:22	180938	N
8:23	181380	N
8:25	181810	N
8:26	182252	N
8:27	182695	N
8:28	183140	N
8:29	183591	N
8:31	184027	N
8:32	184469	N
8:33	184895	N
8:34	185330	N
8:36	185760	N
8:37	186195	N
8:38	186622	N
8:39	187054	N
8:40	187484	N
8:41	187896	N
8:43	188319	N
8:44	188746	N
8:45	189151	N
8:46	189572	N
8:47	189978	N
8:48	190390	N
8:50	190803	N
8:51	191212	N
8:52	191639	N
8:53	192049	N
8:54	192474	N
8:55	192900	N
8:56	193310	N
8:58	193739	N
8:59	194159	N
9:00	194588	N
9:01	195005	N
9:02	195440	N
9:04	195865	N
9:05	196273	N
9:06	196700	N
9:07	197123	N
9:08	197557	N
9:09	197984	N
9:11	198421	N
9:12	198845	N
9:13	199279	N
9:14	199713	N
9:15	200140	N
9:17	200572	N
9:18	201005	N
9:19	201438	N
9:20	201870	N
9:21	202292	N
9:23	202724	N
9:24	203148	N
9:25	203570	N
9:26	203996	N
9:27	204415	N
9:28	204829	N
9:30	205248	N
9:31	205667	N
9:32	206078	N
9:33	206491	N
9:34	206911	N
9:35	207326	N
9:37	207750	N
9:38	208166	N
9:39	208605	N
9:40	209027	N
9:41	209460	N
9:43	209901	N
9:44	210333	N
9:45	210770	N
9:46	211191	N
9:47	211624	N
9:49	212055	N
9:50	212489	N
9:51	212935	N
9:52	213358	N
9:53	213800	N
9:55	214232	N
9:56	214680	N
9:57	215115	N
9:58	215549	N
9:59	215980	N
10:01	216399	N
10:02	216828	N
10:03	217256	N
10:04	217677	N
10:05	218112	N
10:07	218537	N
10:08	218969	N
10:09	219394	N
10:10	219824	N
10:11	220259	N
10:12	220675	N
10:14	221108	N
10:15	221527	N
10:16	221949	N
10:17	222375	N
10:18	222800	N
10:20	223239	N
10:21	223650	N
10:22	224090	N
10:23	224510	N
10:24	224928	N
10:26	225360	N
10:27	225789	N
10:28	226225	N
10:29	226648	N
10:30	227082	N
10:32	227526	N
10:33	227944	N
10:34	228371	N
10:35	228802	N
10:36	229223	N
10:37	229655	N
10:39	230084	N
10:40	230516	N
10:41	230955	N
10:42	231370	N
10:43	231791	N
10:44	232182	N
10:46	232585	N
10:47	232976	N
10:48	233369	N
10:49	233772	N
10:50	234169	N
10:51	234584	N
10:52	234981	N
10:53	235408	N
10:55	235830	N
10:56	236252	N
10:57	236680	N
10:58	237101	N
10:59	237534	N
11:00	237950	N
11:02	238386	N
11:03	238810	N
11:04	239235	N
11:05	239660	N
11:06	240086	N
11:08	240511	N
11:09	240922	N
11:10	241351	N
11:11	241760	N
11:12	242184	N
11:13	242600	N
11:15	243040	N
11:16	243467	N
11:17	243900	N
11:18	244341	N
11:19	244759	N
11:21	245192	N
11:22	245626	N
11:23	246052	N
11:24	246482	N
11:25	246905	N
11:27	247343	N
11:28	247762	N
11:29	248193	N
11:30	248622	N
11:31	249047	N
11:32	249475	N
11:34	249900	N
11:35	250332	N
11:36	250754	N
11:37	251177	N
11:38	251612	N
11:40	252035	N
11:41	252475	N
11:42	252898	N
11:43	253338	N
11:44	253755	N
11:46	254180	N
11:47	254600	N
11:48	255014	N
11:49	255445	N
11:50	255857	N
11:51	256275	N
11:53	256688	N
11:54	257090	N
11:55	257494	N
11:56	257880	N
11:56	258119	~
11:57	258259	N
11:57	258464	~
11:58	258628	N
11:59	258985	N
12:00	259340	N
12:01	259682	N
12:02	260022	N
12:03	260359	N
12:04	260687	N
12:05	261022	N
12:05	261330	N
12:06	261541	A
12:07	261770	~
12:07	261896	N
12:08	262236	N
12:09	262575	N
12:10	262920	N
12:11	263268	N
12:12	263613	N
12:13	263970	N
12:14	264333	N
12:15	264698	N
12:16	265074	N
12:17	265461	N
12:18	265861	N
12:19	266272	N
12:20	266687	N
12:22	267121	N
12:23	267548	N
12:24	267984	N
12:25	268412	N
12:26	268846	N
12:27	269263	N
12:29	269692	N
12:30	270124	N
12:31	270539	N
12:32	270951	N
12:33	271345	N
12:34	271749	N
12:35	272118	N
12:36	272493	N
12:37	272873	N
12:38	273236	N
12:40	273619	N
12:41	274000	N
12:42	274393	N
12:43	274806	N
12:44	275217	N
12:45	275657	N
12:46	276082	N
12:48	276525	N
12:49	276957	N
12:50	277408	N
12:51	277835	N
12:53	278288	N
12:54	278719	N
12:55	279168	N
12:56	279600	N
12:57	280047	N
12:59	280482	N
13:00	280917	N
13:01	281359	N
13:02	281797	N
13:04	282240	N
13:05	282677	N
13:06	283122	N
13:07	283554	N
13:08	283995	N
13:10	284431	N
13:11	284864	N
13:12	285295	N
13:13	285722	N
13:14	286154	N
13:16	286563	N
13:17	286983	N
13:18	287393	N
13:19	287801	N
13:20	288212	N
13:21	288620	N
13:22	289044	N
13:24	289451	N
13:25	289881	N
13:26	290298	N
13:27	290734	N
13:28	291154	N
13:29	291583	N
13:31	292008	N
13:32	292438	N
13:33	292878	N
13:34	293304	N
13:35	293744	N
13:37	294163	N
13:38	294603	N
13:39	295027	N
13:40	295468	N
13:41	295902	N
13:43	296342	N
13:44	296773	N
13:45	297198	N
13:46	297627	N
13:47	298045	N
13:49	298467	N
13:50	298898	N
13:51	299316	N
13:52	299742	N
13:53	300164	N
13:54	300593	N
13:56	301018	N
13:57	301441	N
13:58	301865	N
13:59	302279	N
14:00	302694	N
14:01	303114	N
14:03	303527	N
14:04	303948	N
14:05	304361	N
14:06	304779	N
14:07	305192	N
14:08	305614	N
14:10	306036	N
14:11	306453	N
14:12	306878	N
14:13	307292	N
14:14	307711	N
14:15	308114	N
14:17	308530	N
14:18	308944	N
14:19	309375	N
14:20	309807	N
14:21	310235	N
14:22	310675	N
14:24	311093	N
14:25	311527	N
14:26	311951	N
14:27	312382	N
14:28	312820	N
14:30	313243	N
14:31	313680	N
14:32	314098	N
14:33	314534	N
14:34	314960	N
14:36	315386	N
14:37	315817	N
14:38	316233	N
14:39	316665	N
14:40	317095	N
14:42	317527	N
14:43	317960	N
14:44	318379	N
14:45	318806	N
14:46	319214	N
14:47	319630	N
14:48	320039	N
14:50	320455	N
14:51	320866	N
14:52	321288	N
14:53	321715	N
14:54	322131	N
14:55	322556	N
14:57	322993	N
14:58	323416	N
14:59	323850	N
15:00	324264	N
15:01	324682	N
15:03	325107	N
15:04	325525	N
15:05	325961	N
15:06	326373	N
15:07	326797	N
15:08	327215	N
15:10	327638	N
15:11	328068	N
15:12	328492	N
15:13	328917	N
15:14	329343	N
15:16	329784	N
15:17	330196	N
15:18	330624	N
15:19	331041	N
15:20	331463	N
15:21	331887	N
15:23	332298	N
15:24	332725	N
15:25	333137	N
15:26	333558	N
15:27	333975	N
15:28	334395	N
15:30	334821	N
15:31	335238	N
15:32	335667	N
15:33	336086	N
15:34	336503	N
15:35	336927	N
15:37	337336	N
15:38	337756	N
15:39	338174	N
15:40	338599	N
15:41	339022	N
15:42	339446	N
15:44	339884	N
15:45	340312	N
15:46	340748	N
15:47	341181	N
15:48	341611	N
15:50	342051	N
15:51	342481	N
15:52	342924	N
15:53	343347	N
15:54	343779	N
15:56	344206	N
15:57	344631	N
15:58	345060	N
15:59	345474	N
16:00	345897	N
16:01	346309	N
16:03	346729	N
16:04	347163	N
16:05	347575	N
16:06	348010	N
16:07	348427	N
16:09	348857	N
16:10	349279	N
16:11	349696	N
16:12	350119	N
16:13	350530	N
16:14	350961	N
16:16	351376	N
16:17	351804	N
16:18	352230	N
16:19	352651	N
16:20	353081	N
16:21	353492	N
16:23	353918	N
16:24	354337	N
16:25	354759	N
16:26	355184	N
16:27	355606	N
16:28	356033	N
16:30	356449	N
16:31	356876	N
16:32	357301	N
16:33	357714	N
16:34	358145	N
16:36	358561	N
16:37	358986	N
16:38	359418	N
16:39	359845	N
16:40	360279	N
16:41	360696	N
16:43	361138	N
16:44	361551	N
16:45	361971	N
16:46	362385	N
16:47	362805	N
16:48	363234	N
16:50	363653	N
16:51	364081	N
16:52	364474	N
16:53	364850	N
16:54	365223	N
16:55	365596	N
16:56	365964	N
16:57	366331	N
16:58	366705	N
16:59	367084	N
17:00	367473	N
17:01	367879	N
17:03	368312	N
17:04	368757	N
17:05	369205	N
17:06	369668	N
17:08	370104	N
17:09	370542	N
17:10	370981	N
17:11	371444	N
17:13	371881	N
17:14	372327	N
17:15	372766	N
17:16	373210	N
17:17	373649	N
17:19	374092	N
17:20	374540	N
17:21	374963	N
17:22	375403	N
17:23	375818	N
17:25	376239	N
17:26	376658	N
17:27	377067	N
17:28	377485	N
17:29	377885	N
17:30	378319	N
17:32	378747	N
17:33	379172	N
17:34	379619	N
17:35	380038	N
17:36	380476	N
17:38	380909	N
17:39	381352	N
17:40	381798	N
17:41	382230	N
17:42	382677	N
17:44	383129	N
17:45	383566	N
17:46	384025	N
17:47	384451	N
17:49	384889	N
17:50	385319	N
17:51	385771	N
17:52	386209	N
17:54	386661	N
17:55	387106	N
17:56	387547	N
17:57	387989	N
17:58	388428	N
18:00	388860	N
18:01	389294	N
18:02	389724	N
18:03	390159	N
18:04	390582	N
18:06	391016	N
18:07	391444	N
18:08	391873	N
18:09	392293	N
18:10	392717	N
18:12	393148	N
18:13	393560	N
18:14	393979	N
18:15	394402	N
18:16	394830	N
18:17	395255	N
18:19	395689	N
18:20	396118	N
18:21	396535	N
18:22	396963	N
18:23	397375	N
18:24	397789	N
18:26	398218	N
18:27	398635	N
18:28	399054	N
18:29	399464	N
18:30	399888	N
18:32	400323	N
18:33	400751	N
18:34	401201	N
18:35	401627	N
18:36	402065	N
18:38	402493	N
18:39	402934	N
18:40	403369	N
18:41	403813	N
18:42	404261	N
18:44	404690	N
18:45	405130	N
18:46	405557	N
18:47	405987	N
18:48	406407	N
18:50	406838	N
18:51	407265	N
18:52	407682	N
18:53	408105	N
18:54	408527	N
18:55	408948	N
18:57	409370	N
18:58	409796	N
18:59	410227	N
19:00	410644	N
19:01	411082	N
19:03	411516	N
19:04	411945	N
19:05	412379	N
19:06	412797	N
19:07	413226	N
19:09	413648	N
19:10	414061	N
19:11	414486	N
19:12	414892	N
19:13	415327	N
19:14	415746	N
19:16	416181	N
19:17	416605	N
19:18	417044	N
19:19	417488	N
19:20	417908	N
19:22	418351	N
19:23	418775	N
19:24	419202	N
19:25	419632	N
19:26	420055	N
19:28	420489	N
19:29	420903	N
19:30	421342	N
19:31	421764	N
19:32	422202	N
19:33	422636	N
19:35	423066	N
19:36	423492	N
19:37	423919	N
19:38	424342	N
19:39	424758	N
19:41	425176	N
19:42	425611	N
19:43	426029	N
19:44	426453	N
19:45	426876	N
19:46	427300	N
19:48	427722	N
19:49	428129	N
19:50	428553	N
19:51	428975	N
19:52	429386	N
19:53	429820	N
19:55	430232	N
19:56	430659	N
19:57	431072	N
19:58	431501	N
19:59	431933	N
20:00	432352	N
20:02	432790	N
20:03	433214	N
20:04	433647	N
20:05	434079	N
20:06	434516	N
20:08	434952	N
20:09	435381	N
20:10	435821	N
20:11	436235	N
20:12	436668	N
20:14	437092	N
20:15	437522	N
20:16	437948	N
20:17	438365	N
20:18	438786	N
20:20	439203	N
20:21	439621	N
20:22	440052	N
20:23	440467	N
20:24	440894	N
20:25	441306	N
20:27	441728	N
20:28	442149	N
20:29	442561	N
20:30	442994	N
20:31	443408	N
20:32	443838	N
20:34	444265	N
20:35	444697	N
20:36	445119	N
20:37	445547	N
20:38	445984	N
20:40	446413	N
20:41	446867	N
20:42	447292	N
20:43	447733	N
20:44	448159	N
20:46	448593	N
20:47	449028	N
20:48	449452	N
20:49	449885	N
20:50	450304	N
20:52	450732	N
20:53	451164	N
20:54	451596	N
20:55	452037	N
20:56	452466	N
20:58	452902	N
20:59	453331	N
21:00	453758	N
21:01	454202	N
21:02	454622	N
21:04	455051	N
21:05	455484	N
21:06	455922	N
21:07	456347	N
21:08	456783	N
21:10	457214	N
21:11	457637	N
21:12	458075	N
21:13	458488	N
21:14	458915	N
21:15	459337	N
21:17	459762	N
21:18	460193	N
21:19	460608	N
21:20	461038	N
21:21	461457	N
21:22	461869	N
21:24	462290	N
21:25	462695	N
21:26	463121	N
21:27	463543	N
21:28	463966	N
21:30	464407	N
21:31	464829	N
21:32	465259	N
21:33	465685	N
21:34	466106	N
21:35	466532	N
21:37	466957	N
21:38	467387	N
21:39	467804	N
21:40	468230	N
21:41	468661	N
21:43	469083	N
21:44	469518	N
21:45	469933	N
21:46	470358	N
21:47	470764	N
21:48	471188	N
21:50	471610	N
21:51	472025	N
21:52	472450	N
21:53	472863	N
21:54	473276	N
21:55	473686	N
21:56	474102	N
21:58	474529	N
21:59	474936	N
22:00	475367	N
22:01	475780	N
22:02	476207	N
22:03	476631	N
22:05	477067	N
22:06	477501	N
22:07	477919	N
22:08	478341	N
22:09	478755	N
22:11	479178	N
22:12	479604	N
22:13	480014	N
22:14	480437	N
22:15	480858	N
22:16	481276	N
22:18	481699	N
22:19	482113	N
22:20	482541	N
22:21	482967	N
22:22	483394	N
22:23	483833	N
22:25	484255	N
22:26	484681	N
22:27	485097	N
22:28	485530	N
22:29	485952	N
22:31	486388	N
22:32	486826	N
22:33	487253	N
22:34	487690	N
22:35	488105	N
22:37	488541	N
22:38	488951	N
22:39	489380	N
22:40	489803	N
22:41	490223	N
22:42	490654	N
22:44	491070	N
22:45	491498	N
22:46	491912	N
22:47	492338	N
22:48	492760	N
22:49	493168	N
22:51	493590	N
22:52	494001	N
22:53	494429	N
22:54	494850	N
22:55	495284	N
22:56	495716	N
22:58	496136	N
22:59	496564	N
23:00	496989	N
23:01	497409	N
23:02	497842	N
23:04	498260	N
23:05	498688	N
23:06	499112	N
23:07	499540	N
23:08	499970	N
23:09	500389	N
23:11	500823	N
23:12	501237	N
23:13	501651	N
23:14	502074	N
23:15	502486	N
23:16	502916	N
23:18	503320	N
23:19	503755	N
23:20	504175	N
23:21	504597	N
23:22	505028	N
23:24	505450	N
23:25	505877	N
23:26	506291	N
23:27	506725	N
23:28	507152	N
23:29	507571	N
23:31	508005	N
23:32	508424	N
23:33	508852	N
23:34	509275	N
23:35	509699	N
23:37	510123	N
23:38	510540	N
23:39	510963	N
23:40	511389	N
23:41	511803	N
23:42	512234	N
23:44	512647	N
23:45	513061	N
23:46	513472	N
23:47	513884	N
23:48	514311	N
23:49	514712	N
23:50	515142	N
23:52	515552	N
23:53	515972	N
23:54	516392	N
23:55	516815	N
23:56	517248	N
23:57	517665	N
23:59	518091	N
24:00	518509	N
24:01	518922	N
24:02	519342	N
24:03	519762	N
24:04	520183	N
24:06	520590	N
24:07	521020	N
24:08	521434	N
24:09	521858	N
24:10	522288	N
24:11	522711	N
24:13	523134	N
24:14	523560	N
24:15	523980	N
24:16	524402	N
24:17	524813	N
24:19	525242	N
24:20	525656	N
24:21	526073	N
24:22	526501	N
24:23	526910	N
24:24	527323	N
24:25	527729	N
24:27	528149	N
24:28	528571	N
24:29	528986	N
24:30	529415	N
24:31	529826	N
24:32	530246	N
24:34	530651	N
24:35	531067	N
24:36	531488	N
24:37	531892	N
24:38	532319	N
24:39	532727	N
24:40	533145	N
24:42	533554	N
24:43	533979	N
24:44	534403	N
24:45	534814	N
24:46	535242	N
24:47	535662	N
24:49	536085	N
24:50	536516	N
24:51	536930	N
24:52	537359	N
24:53	537776	N
24:55	538207	N
24:56	538630	N
24:57	539047	N
24:58	539471	N
24:59	539888	N
25:00	540304	N
25:02	540732	N
25:03	541150	N
25:04	541572	N
25:05	541981	N
25:06	542412	N
25:07	542827	N
25:09	543248	N
25:10	543671	N
25:11	544087	N
25:12	544508	N
25:13	544914	N
25:14	545345	N
25:16	545768	N
25:17	546181	N
25:18	546605	N
25:19	547023	N
25:20	547432	N
25:21	547861	N
25:23	548281	N
25:24	548719	N
25:25	549134	N
25:26	549568	N
25:27	549986	N
25:28	550417	N
25:30	550844	N
25:31	551275	N
25:32	551702	N
25:33	552123	N
25:34	552549	N
25:36	552960	N
25:37	553378	N
25:38	553802	N
25:39	554214	N
25:40	554625	N
25:41	555039	N
25:42	555460	N
25:44	555877	N
25:45	556294	N
25:46	556721	N
25:47	557139	N
25:48	557560	N
25:49	557976	N
25:51	558393	N
25:52	558802	N
25:53	559213	N
25:54	559638	N
25:55	560050	N
25:56	560472	N
25:58	560891	N
25:59	561307	N
26:00	561727	N
26:01	562137	N
26:02	562569	N
26:03	562977	N
26:05	563403	N
26:06	563819	N
26:07	564240	N
26:08	564654	N
26:09	565083	N
26:10	565510	N
26:12	565926	N
26:13	566359	N
26:14	566775	N
26:15	567198	N
26:16	567611	N
26:17	568032	N
26:19	568462	N
26:20	568882	N
26:21	569322	N
26:22	569735	N
26:23	570158	N
26:24	570571	N
26:26	570996	N
26:27	571427	N
26:28	571843	N
26:29	572273	N
26:30	572686	N
26:31	573109	N
26:33	573532	N
26:34	573951	N
26:35	574372	N
26:36	574780	N
26:37	575198	N
26:38	575598	N
26:40	576016	N
26:41	576434	N
26:42	576862	N
26:43	577271	N
26:44	577683	N
26:45	578083	N
26:46	578480	N
26:47	578874	N
26:49	579268	N
26:50	579669	N
26:51	580066	N
26:52	580478	N
26:53	580898	N
26:54	581329	N
26:55	581754	N
26:57	582193	N
26:58	582625	N
26:59	583058	N
27:00	583487	N
27:01	583916	N
27:03	584342	N
27:04	584754	N
27:05	585183	N
27:06	585605	N
27:07	586026	N
27:09	586466	N
27:10	586886	N
27:11	587317	N
27:12	587733	N
27:13	588159	N
27:14	588579	N
27:16	589004	N
27:17	589439	N
27:18	589853	N
27:19	590282	N
27:20	590699	N
27:22	591129	N
27:23	591557	N
27:24	591973	N
27:25	592402	N
27:26	592810	N
27:27	593236	N
27:29	593659	N
27:30	594082	N
27:31	594505	N
27:32	594924	N
27:33	595349	N
27:34	595759	N
27:36	596177	N
27:37	596604	N
27:38	597019	N
27:39	597445	N
27:40	597866	N
27:41	598287	N
27:43	598716	N
27:44	599133	N
27:45	599569	N
27:46	599981	N
27:47	600412	N
27:48	600833	N
27:50	601247	N
27:51	601670	N
27:52	602083	N
27:53	602509	N
27:54	602918	N
27:55	603346	N
27:57	603761	N
27:58	604176	N
27:59	604597	N
28:00	605004	N
28:01	605426	N
28:02	605828	N
28:04	606250	N
28:05	606667	N
28:06	607073	N
28:07	607494	N
28:08	607913	N
28:09	608334	N
28:11	608761	N
28:12	609175	N
28:13	609599	N
28:14	610015	N
28:15	610430	N
28:16	610866	N
28:18	611280	N
28:19	611710	N
28:20	612132	N
28:21	612545	N
28:22	612969	N
28:23	613379	N
28:25	613805	N
28:26	614222	N
28:27	614641	N
28:28	615065	N
28:29	615471	N
28:30	615896	N
28:31	616317	N
28:33	616737	N
28:34	617167	N
28:35	617590	N
28:36	618012	N
28:37	618425	N
28:38	618837	N
28:40	619263	N
28:41	619682	N
28:42	620116	N
28:43	620546	N
28:44	620978	N
28:46	621409	N
28:47	621830	N
28:48	622263	N
28:49	622674	N
28:50	623093	N
28:52	623525	N
28:53	623938	N
28:54	624370	N
28:55	624780	N
28:56	625209	N
28:57	625619	N
28:58	626039	N
29:00	626463	N
29:01	626864	N
29:02	627285	N
29:03	627704	N
29:04	628130	N
29:06	628561	N
29:07	628984	N
29:08	629413	N
29:09	629825	N
29:10	630250	N
29:11	630675	N
29:13	631103	N
29:14	631531	N
29:15	631960	N
29:16	632393	N
29:17	632811	N
29:18	633237	N
29:20	633664	N
29:21	634083	N
29:22	634507	N
29:23	634923	N
29:24	635344	N
29:26	635761	N
29:27	636183	N
29:28	636615	N
29:29	637023	N
29:30	637457	N
29:31	637868	N
29:33	638287	N
29:34	638705	N
29:35	639119	N
29:36	639546	N
29:37	639957	N
29:38	640376	N
29:39	640790	N
29:41	641195	N
29:42	641609	N
29:43	642017	N
29:44	642438	N
29:45	642848	N
29:46	643269	N
29:48	643691	N
29:49	644096	N
29:50	644509	N
29:51	644927	N
29:52	645340	N
29:53	645762	N
29:54	646169	N
29:56	646585	N
29:57	646995	N
29:58	647405	N
29:59	647823	N
30:00	648229	N
30:01	648653	N
30:02	649070	N
30:04	649498	N
30:05	649926	N
