0:00	68	R
0:01	369	R
0:01	674	R
0:02	980	R
0:03	1284	R
0:04	1587	R
0:05	1879	R
0:06	2175	R
0:06	2475	R
0:07	2766	R
0:08	3054	R
0:09	3364	R
0:10	3674	R
0:11	3978	R
0:11	4282	R
0:12	4580	R
0:13	4883	R
0:14	5171	R
0:15	5464	R
0:16	5762	R
0:16	6057	R
0:17	6351	R
0:18	6644	R
0:19	6929	R
0:20	7215	R
0:20	7506	R
0:21	7793	R
0:22	8082	R
0:23	8378	R
0:24	8664	R
0:24	8966	R
0:25	9266	R
0:26	9565	R
0:27	9875	R
0:28	10178	R
0:29	10480	R
0:29	10789	R
0:30	11046	V
0:31	11383	R
0:32	11687	R
0:33	11991	R
0:34	12294	R
0:34	12595	R
0:35	12898	R
0:36	13199	R
0:37	13497	R
0:38	13790	R
0:39	14071	R
0:39	14359	R
0:40	14638	R
0:41	14916	R
0:42	15209	R
0:43	15497	R
0:43	15789	R
0:44	16090	R
0:45	16393	R
0:46	16701	R
0:47	17006	R
0:48	17313	R
0:48	17622	R
0:49	17933	R
0:50	18243	R
0:51	18548	R
0:52	18854	R
0:53	19157	R
0:54	19459	R
0:54	19761	R
0:55	20055	R
0:56	20360	R
0:57	20655	R
0:58	20957	R
0:59	21267	R
0:59	21566	R
1:00	21868	R
1:01	22176	R
1:02	22474	R
1:03	22777	R
1:04	23076	R
1:04	23373	R
1:05	23667	R
1:06	23968	R
1:07	24272	R
1:08	24566	R
1:09	24863	R
1:09	25169	R
1:10	25473	R
1:11	25775	R
1:12	26078	R
1:13	26375	R
1:14	26674	R
1:14	26976	R
1:15	27278	R
1:16	27575	R
1:17	27873	R
1:18	28177	R
1:19	28469	R
1:19	28767	R
1:20	29060	R
1:21	29350	R
1:22	29648	R
1:23	29947	R
1:24	30240	R
1:24	30537	R
1:25	30830	R
1:26	31121	R
1:27	31412	R
1:28	31704	R
1:28	31986	R
1:29	32272	R
1:30	32560	R
1:31	32850	R
1:32	33141	R
1:32	33429	R
1:33	33656	A
1:34	33983	R
1:35	34290	R
1:36	34578	R
1:36	34864	R
1:37	35151	R
1:38	35385	A
1:39	35700	R
1:39	35993	R
1:40	36277	R
1:41	36563	R
1:42	36843	R
1:43	37131	R
1:43	37419	R
1:44	37706	R
1:45	37931	A
1:46	38260	R
1:46	38488	V
1:47	38850	R
1:48	39146	R
1:49	39428	R
1:50	39713	R
1:51	39994	R
1:51	40284	R
1:52	40520	A
1:53	40827	R
1:54	41126	R
1:55	41413	R
1:55	41707	R
1:56	41998	R
1:57	42286	R
1:58	42582	R
1:59	42876	R
1:59	43175	R
2:00	43473	R
2:01	43766	R
2:02	44061	R
2:03	44350	R
2:04	44642	R
2:04	44935	R
2:05	45231	R
2:06	45522	R
2:07	45810	R
2:08	46111	R
2:08	46405	R
2:09	46694	R
2:10	46991	R
2:11	47284	R
2:12	47568	R
2:12	47861	R
2:13	48147	R
2:14	48429	R
2:15	48714	R
2:16	49010	R
2:16	49295	R
2:17	49589	R
2:18	49881	R
2:19	50177	R
2:20	50475	R
2:21	50776	R
2:21	51080	R
2:22	51380	R
2:23	51683	R
2:24	51989	R
2:25	52293	R
2:26	52590	R
2:26	52895	R
2:27	53201	R
2:28	53503	R
2:29	53810	R
2:30	54117	R
2:31	54420	R
2:32	54728	R
2:32	55036	R
2:33	55336	R
2:34	55639	R
2:35	55950	R
2:36	56252	R
2:37	56554	R
2:37	56863	R
2:38	57158	R
2:39	57459	R
2:40	57758	R
2:41	58051	R
2:42	58350	R
2:42	58637	R
2:43	58933	R
2:44	59228	R
2:45	59522	R
2:46	59817	R
2:46	60111	R
2:47	60396	R
2:48	60686	R
2:49	60914	A
2:50	61234	R
2:50	61528	R
2:51	61824	R
2:52	62109	R
2:53	62399	R
2:54	62692	R
2:54	62976	R
2:55	63269	R
2:56	63560	R
2:57	63851	R
2:58	64144	R
2:59	64440	R
2:59	64520	x
3:00	64954	R
3:01	65276	R
3:02	65575	R
3:02	65870	R
3:03	66160	R
3:04	66446	R
3:05	66746	R
3:06	67037	R
3:07	67327	R
3:07	67625	R
3:08	67921	R
3:09	68213	R
3:10	68517	R
3:11	68821	R
3:11	68923	x
3:12	69375	R
3:13	69697	R
3:14	70008	R
3:15	70319	R
3:16	70614	R
3:16	70913	R
3:17	71208	R
3:18	71505	R
3:19	71752	A
3:20	72103	R
3:20	72342	A
3:21	72717	R
3:22	73038	R
3:23	73349	R
3:24	73664	R
3:25	73970	R
3:26	74268	R
3:27	74576	R
3:27	74877	R
3:28	75169	R
3:29	75459	R
3:30	75759	R
3:31	76057	R
3:32	76356	R
3:32	76657	R
3:33	76957	R
3:34	77256	R
3:35	77559	R
3:36	77863	R
3:37	78162	R
3:37	78461	R
3:38	78769	R
3:39	79075	R
3:40	79377	R
3:41	79680	R
3:42	79980	R
3:43	80282	R
3:43	80593	R
3:44	80858	V
3:45	81190	R
3:46	81492	R
3:47	81797	R
3:48	82091	R
3:48	82385	R
3:49	82680	R
3:50	82974	R
3:51	83268	R
3:52	83560	R
3:52	83855	R
3:53	84143	R
3:54	84427	R
3:55	84716	R
3:56	85004	R
3:56	85294	R
3:57	85586	R
3:58	85875	R
3:59	86163	R
4:00	86455	R
4:00	86753	R
4:01	87035	R
4:02	87321	R
4:03	87620	R
4:04	87905	R
4:05	88203	R
4:05	88495	R
4:06	88791	R
4:07	89098	R
4:08	89398	R
4:09	89702	R
4:10	90000	R
4:10	90300	R
4:11	90612	R
4:12	90924	R
4:13	91224	R
4:14	91530	R
4:15	91838	R
4:15	92147	R
4:16	92463	R
4:17	92780	R
4:18	93093	R
4:19	93418	R
4:20	93738	R
4:20	93918	~
4:21	94056	R
4:22	94355	R
4:22	94667	R
4:23	94972	R
4:24	95150	~
4:24	95284	R
4:25	95580	R
4:26	95872	R
4:27	96163	R
4:27	96450	R
4:28	96744	R
4:29	97038	R
4:30	97326	R
4:31	97618	R
4:31	97914	R
4:32	98209	R
4:33	98513	R
4:34	98810	R
4:35	99025	A
4:35	99354	R
4:36	99661	R
4:37	99952	R
4:38	100242	R
4:39	100535	R
4:39	100758	A
4:40	101077	R
4:41	101384	R
4:42	101671	R
4:43	101959	R
4:44	102253	R
4:44	102488	A
4:45	102822	R
4:46	103143	R
4:46	103214	x
4:47	103669	R
4:48	103997	R
4:49	104297	R
4:50	104592	R
4:51	104895	R
4:52	105188	R
4:52	105466	R
4:53	105781	R
4:54	106076	R
4:55	106376	R
4:56	106668	R
4:57	106960	R
4:57	107269	R
4:58	107565	R
4:59	107858	R
5:00	108155	R
5:01	108450	R
5:02	108741	R
5:02	109014	R
5:03	109300	R
5:04	109576	R
5:05	109814	A
5:05	110121	R
5:06	110410	R
5:07	110694	R
5:08	110978	R
5:09	111265	R
5:09	111496	A
5:10	111823	R
5:11	112124	R
5:12	112425	R
5:13	112717	R
5:13	113008	R
5:14	113313	R
5:15	113603	R
5:16	113896	R
5:17	114195	R
5:18	114489	R
5:18	114786	R
5:19	115083	R
5:20	115381	R
5:21	115680	R
5:22	115977	R
5:22	116278	R
5:23	116580	R
5:24	116881	R
5:25	117177	R
5:26	117479	R
5:27	117779	R
5:27	118067	R
5:28	118362	R
5:29	118656	R
5:30	118949	R
5:31	119254	R
5:32	119550	R
5:32	119848	R
5:33	120146	R
5:34	120454	R
5:35	120756	R
5:36	121049	R
5:37	121358	R
5:37	121656	R
5:38	121959	R
5:39	122260	R
5:40	122555	R
5:41	122856	R
5:42	123139	R
5:42	123429	R
5:43	123731	R
5:44	124015	R
5:45	124310	R
5:46	124604	R
5:46	124894	R
5:47	125194	R
5:48	125474	R
5:49	125696	A
5:50	126043	R
5:50	126350	R
5:51	126650	R
5:52	126942	R
5:53	127155	A
5:54	127470	R
5:54	127705	A
5:55	128051	R
5:56	128284	A
5:57	128621	R
5:57	128853	A
5:58	129202	R
5:59	129502	R
6:00	129796	R
6:01	130000	A
6:01	130319	R
6:02	130615	R
6:03	130814	~
6:03	130905	R
6:04	131193	R
6:05	131475	R
6:05	131747	R
6:06	132027	R
6:07	132306	R
6:08	132577	R
6:09	132845	R
6:09	133045	~
6:09	133122	R
6:10	133394	R
6:11	133665	R
6:12	133943	R
6:12	134223	R
6:13	134493	R
6:14	134769	R
6:15	135046	R
6:15	135312	R
6:16	135581	R
6:17	135841	R
6:18	136107	R
6:18	136370	R
6:19	136637	R
6:20	136901	R
6:21	137166	R
6:21	137431	R
6:22	137694	R
6:23	137964	R
6:23	138234	R
6:24	138500	R
6:25	138756	R
6:26	139028	R
6:26	139292	R
6:27	139554	R
6:28	139821	R
6:29	140091	R
6:29	140353	R
6:30	140616	R
6:31	140889	R
6:32	141153	R
6:32	141418	R
6:33	141653	A
6:34	141941	R
6:34	142199	R
6:35	142462	R
6:36	142720	R
6:37	142978	R
6:37	143232	R
6:38	143487	R
6:39	143740	R
6:39	143996	R
6:40	144250	R
6:41	144503	R
6:42	144750	R
6:42	145002	R
6:43	145256	R
6:44	145504	R
6:44	145759	R
6:45	146012	R
6:46	146260	R
6:46	146504	R
6:47	146759	R
6:48	147013	R
6:49	147260	R
6:49	147502	R
6:50	147749	R
6:51	147995	R
6:51	148238	R
6:52	148483	R
6:53	148729	R
6:53	148972	R
6:54	149215	R
6:55	149460	R
6:55	149706	R
6:56	149952	R
6:57	150198	R
6:57	150443	R
6:58	150682	R
6:59	150928	R
6:59	151171	R
7:00	151414	R
7:01	151654	R
7:01	151900	R
7:02	152140	R
7:03	152377	R
7:03	152614	R
7:04	152863	R
7:05	153104	R
7:05	153343	R
7:06	153581	R
7:07	153829	R
7:07	154066	R
7:08	154307	R
7:09	154553	R
7:10	154803	R
7:10	155044	R
7:11	155291	R
7:12	155536	R
7:12	155785	R
7:13	156029	R
7:14	156274	R
7:14	156515	R
7:15	156757	R
7:16	157002	R
7:16	157247	R
7:17	157489	R
7:18	157735	R
7:18	157983	R
7:19	158173	A
7:20	158457	R
7:20	158715	R
7:21	158969	R
7:22	159223	R
7:22	159473	R
7:23	159728	R
7:24	159980	R
7:25	160229	R
7:25	160483	R
7:26	160740	R
7:27	160989	R
7:27	161237	R
7:28	161485	R
7:29	161674	A
7:29	161949	R
7:30	162202	R
7:31	162450	R
7:31	162698	R
7:32	162946	R
7:33	163198	R
7:34	163454	R
7:34	163707	R
7:35	163965	R
7:36	164224	R
7:36	164478	R
7:37	164743	R
7:38	165003	R
7:39	165261	R
7:39	165518	R
7:40	165783	R
7:40	165956	V
7:41	166214	A
7:42	166529	R
7:43	166805	R
7:44	167068	R
7:44	167334	R
7:45	167601	R
7:46	167870	R
7:47	168135	R
7:47	168401	R
7:48	168665	R
7:49	168923	R
7:49	169185	R
7:50	169445	R
7:51	169708	R
7:52	169965	R
7:52	170222	R
7:53	170474	R
7:54	170740	R
7:54	170997	R
7:55	171260	R
7:56	171511	R
7:57	171776	R
7:57	172035	R
7:58	172294	R
7:59	172560	R
8:00	172824	R
8:00	173079	R
8:01	173330	R
8:02	173595	R
8:02	173848	R
8:03	174106	R
8:04	174357	R
8:05	174616	R
8:05	174864	R
8:06	175124	R
8:07	175381	R
8:07	175644	R
8:08	175895	R
8:09	176155	R
8:10	176413	R
8:10	176662	R
8:11	176941	R
8:12	177201	R
8:12	177457	R
8:13	177717	R
8:14	177888	V
8:14	178197	R
8:15	178503	R
8:16	178769	R
8:17	179030	R
8:18	179287	R
8:18	179555	R
8:19	179782	A
8:20	180073	R
8:20	180270	V
8:21	180602	R
8:22	180863	R
8:23	181122	R
8:23	181388	R
8:24	181647	R
8:25	181903	R
8:26	182162	R
8:26	182407	R
8:27	182681	R
8:28	182945	R
8:28	183200	R
8:29	183458	R
8:30	183715	R
8:31	183974	R
8:31	184187	A
8:32	184479	R
8:33	184739	R
8:33	184997	R
8:34	185254	R
8:35	185534	R
8:36	185779	R
8:36	186032	R
8:37	186283	R
8:37	186472	A
8:38	186756	R
8:39	187010	R
8:40	187269	R
8:40	187526	R
8:41	187772	R
8:42	188023	R
8:42	188274	R
8:43	188526	R
8:44	188774	R
8:45	189025	R
8:45	189273	R
8:46	189520	R
8:47	189767	R
8:47	190019	R
8:48	190267	R
8:49	190514	R
8:49	190763	R
8:50	190944	A
8:51	191222	R
8:51	191480	R
8:52	191729	R
8:53	191977	R
8:53	192225	R
8:54	192477	R
8:55	192723	R
8:56	192969	R
8:56	193221	R
8:57	193445	R
8:58	193719	R
8:58	193973	R
8:59	194237	R
9:00	194496	R
9:00	194756	R
9:01	195018	R
9:02	195285	R
9:03	195547	R
9:03	195813	R
9:04	196077	R
9:05	196344	R
9:06	196610	R
9:06	196880	R
9:07	197150	R
9:08	197422	R
9:09	197691	R
9:09	197961	R
9:10	198230	R
9:11	198502	R
9:12	198772	R
9:12	199046	R
9:13	199324	R
9:14	199600	R
9:14	199791	A
9:15	200095	R
9:16	200380	R
9:17	200575	A
9:18	200891	R
9:18	201165	R
9:19	201442	R
9:20	201715	R
9:21	201995	R
9:21	202273	R
9:22	202553	R
9:23	202835	R
9:24	203115	R
9:25	203401	R
9:25	203685	R
9:26	203965	R
9:27	204247	R
9:27	204421	V
9:28	204808	R
9:29	205089	R
9:30	205375	R
9:31	205652	R
9:32	205925	R
9:32	206210	R
9:33	206491	R
9:34	206770	R
9:35	207049	R
9:35	207335	R
9:36	207611	R
9:37	207889	R
9:38	208170	R
9:39	208444	R
9:39	208723	R
9:40	208996	R
9:41	209275	R
9:42	209552	R
9:42	209830	R
9:43	210104	R
9:44	210383	R
9:45	210660	R
9:45	210934	R
9:46	211217	R
9:47	211489	R
9:48	211755	R
9:48	212023	R
9:49	212298	R
9:50	212567	R
9:51	212832	R
9:51	213104	R
9:52	213374	R
9:53	213643	R
9:54	213917	R
9:54	214197	R
9:55	214468	R
9:56	214744	R
9:57	215023	R
9:58	215302	R
9:58	215586	R
9:59	215862	R
10:00	216142	R
10:01	216422	R
10:01	216701	R
10:02	216981	R
10:03	217180	A
10:04	217486	R
10:04	217763	R
10:05	218041	R
10:06	218318	R
10:07	218593	R
10:07	218860	R
10:08	219137	R
10:09	219410	R
10:10	219682	R
10:11	219961	R
10:11	220237	R
10:12	220507	R
10:13	220782	R
10:14	221065	R
10:14	221331	R
10:15	221609	R
10:16	221883	R
10:17	222157	R
10:17	222426	R
10:18	222698	R
10:19	222973	R
10:20	223246	R
10:20	223521	R
10:21	223793	R
10:22	224067	R
10:23	224343	R
10:23	224617	R
10:24	224895	R
10:25	225166	R
10:26	225441	R
10:26	225715	R
10:27	226001	R
10:28	226272	R
10:29	226463	A
10:29	226767	R
10:30	227053	R
10:31	227324	R
10:32	227593	R
10:32	227866	R
10:33	228125	R
10:34	228396	R
10:35	228669	R
10:35	228946	R
10:36	229218	R
10:37	229495	R
10:38	229770	R
10:39	230045	R
10:39	230330	R
10:40	230602	R
10:41	230877	R
10:42	231154	R
10:42	231427	R
10:43	231699	R
10:44	231983	R
10:45	232255	R
10:45	232524	R
10:46	232803	R
10:47	233080	R
10:48	233361	R
10:48	233625	R
10:49	233905	R
10:50	234188	R
10:51	234464	R
10:52	234753	R
10:52	234950	A
10:53	235257	R
10:54	235535	R
10:55	235819	R
10:55	236097	R
10:56	236376	R
10:57	236650	R
10:58	236932	R
10:58	237216	R
10:59	237502	R
11:00	237789	R
11:01	238075	R
11:02	238361	R
11:02	238646	R
11:03	238944	R
11:04	239229	R
11:05	239424	A
11:05	239740	R
11:06	240025	R
11:07	240312	R
11:08	240529	A
11:09	240878	R
11:09	241173	R
11:10	241473	R
11:11	241777	R
11:12	242075	R
11:13	242384	R
11:14	242686	R
11:14	242996	R
11:15	243313	R
11:16	243618	R
11:17	243934	R
11:18	244242	R
11:19	244545	R
11:20	244863	R
11:21	245173	R
11:21	245473	R
11:22	245785	R
11:23	246091	R
11:24	246389	R
11:25	246693	R
11:26	246993	R
11:26	247287	R
11:27	247587	R
11:28	247889	R
11:29	248187	R
11:30	248481	R
11:31	248784	R
11:31	249097	R
11:32	249408	R
11:33	249721	R
11:34	250043	R
11:35	250362	R
11:36	250677	R
11:37	250998	R
11:38	251315	R
11:38	251628	R
11:39	251946	R
11:40	252253	R
11:41	252563	R
11:42	252873	R
11:43	253169	R
11:43	253370	A
11:44	253715	R
11:45	254020	R
11:46	254329	R
11:47	254644	R
11:48	254954	R
11:49	255276	R
11:50	255600	R
11:50	255916	R
11:51	256232	R
11:52	256549	R
11:53	256866	R
11:54	257184	R
11:55	257491	R
11:56	257805	R
11:56	258118	R
11:57	258430	R
11:58	258747	R
11:59	259057	R
12:00	259366	R
12:01	259682	R
12:02	259987	R
12:03	260291	R
12:03	260598	R
12:04	260899	R
12:05	261121	A
12:06	261481	R
12:07	261780	R
12:08	262084	R
12:08	262388	R
12:09	262594	A
12:10	262921	R
12:11	263216	R
12:11	263414	A
12:12	263733	R
12:13	263961	A
12:14	264290	R
12:14	264579	R
12:15	264862	R
12:16	265138	R
12:17	265425	R
12:18	265702	R
12:18	265980	R
12:19	266252	R
12:20	266535	R
12:21	266808	R
12:21	267083	R
12:22	267368	R
12:23	267642	R
12:23	267814	V
12:24	268180	R
12:25	268455	R
12:26	268720	R
12:27	268990	R
12:27	269217	A
12:27	269262	~
12:28	269511	R
12:29	269712	~
12:29	269779	R
12:30	270050	R
12:30	270317	R
12:31	270586	R
12:32	270856	R
12:33	271122	R
12:33	271396	R
12:34	271667	R
12:35	271933	R
12:36	272193	R
12:36	272413	A
12:37	272712	R
12:38	272976	R
12:39	273246	R
12:39	273516	R
12:40	273777	R
12:41	273967	A
12:41	274271	R
12:42	274538	R
12:43	274806	R
12:44	275067	R
12:44	275339	R
12:45	275546	A
12:46	275853	R
12:47	276126	R
12:47	276398	R
12:48	276666	R
12:49	276932	R
12:49	277191	R
12:50	277460	R
12:51	277682	A
12:52	277974	R
12:52	278238	R
12:53	278496	R
12:54	278758	R
12:55	279014	R
12:55	279247	A
12:56	279535	R
12:57	279801	R
12:57	280069	R
12:58	280349	R
12:59	280617	R
13:00	280893	R
13:01	281168	R
13:01	281439	R
13:02	281717	R
13:03	282003	R
13:04	282289	R
13:04	282568	R
13:05	282853	R
13:06	283144	R
13:07	283432	R
13:08	283722	R
13:08	284006	R
13:09	284295	R
13:10	284582	R
13:11	284865	R
13:12	285154	R
13:12	285449	R
13:13	285732	R
13:14	286016	R
13:15	286313	R
13:15	286528	A
13:16	286837	R
13:17	287137	R
13:18	287433	R
13:19	287725	R
13:20	288017	R
13:20	288312	R
13:21	288600	R
13:22	288896	R
13:23	289193	R
13:24	289490	R
13:24	289793	R
13:25	290085	R
13:26	290382	R
13:27	290680	R
13:28	290975	R
13:29	291273	R
13:29	291562	R
13:30	291846	R
13:31	292070	A
13:32	292367	R
13:32	292649	R
13:33	292922	R
13:34	293206	R
13:35	293481	R
13:35	293758	R
13:36	294045	R
13:37	294330	R
13:38	294612	R
13:39	294898	R
13:39	295193	R
13:40	295478	R
13:41	295769	R
13:42	296057	R
13:43	296343	R
13:44	296640	R
13:44	296928	R
13:45	297222	R
13:46	297515	R
13:47	297805	R
13:48	298107	R
13:48	298402	R
13:49	298695	R
13:50	298993	R
13:51	299288	R
13:52	299580	R
13:52	299687	x
13:53	300145	R
13:54	300468	R
13:55	300778	R
13:56	301089	R
13:57	301381	R
13:57	301668	R
13:58	301958	R
13:59	302242	R
14:00	302533	R
14:01	302823	R
14:01	303108	R
14:02	303395	R
14:03	303676	R
14:04	303960	R
14:05	304244	R
14:05	304524	R
14:06	304796	R
14:07	305077	R
14:08	305354	R
14:08	305576	A
14:10	306016	R
14:10	306322	R
14:11	306600	R
14:12	306885	R
14:13	307100	A
14:13	307394	R
14:14	307675	R
14:15	307952	R
14:16	308225	R
14:16	308496	R
14:17	308775	R
14:18	309048	R
14:19	309318	R
14:19	309535	A
14:20	309820	R
14:21	310099	R
14:22	310382	R
14:22	310657	R
14:23	310750	x
14:24	311151	R
14:25	311455	R
14:25	311734	R
14:26	312016	R
14:27	312292	R
14:28	312559	R
14:29	312844	R
14:29	313117	R
14:30	313388	R
14:31	313666	R
14:32	313947	R
14:32	314160	A
14:33	314461	R
14:34	314762	R
14:35	315044	R
14:35	315333	R
14:36	315617	R
14:37	315902	R
14:38	316186	R
14:39	316470	R
14:39	316755	R
14:40	317033	R
14:41	317320	R
14:42	317603	R
14:43	317887	R
14:43	318174	R
14:44	318459	R
14:45	318752	R
14:46	319041	R
14:47	319333	R
14:47	319550	A
14:48	319919	R
14:49	320241	R
14:50	320550	R
14:51	320863	R
14:52	321161	R
14:52	321454	R
14:53	321755	R
14:54	322043	R
14:55	322330	R
14:56	322622	R
14:56	322906	R
14:57	323196	R
14:58	323494	R
14:59	323786	R
15:00	324079	R
15:01	324370	R
15:01	324665	R
15:02	324957	R
15:03	325247	R
15:04	325528	R
15:05	325821	R
15:05	326110	R
15:06	326403	R
15:07	326699	R
15:08	326987	R
15:09	327277	R
15:09	327567	R
15:10	327864	R
15:11	328154	R
15:12	328440	R
15:13	328732	R
15:13	329011	R
15:14	329302	R
15:15	329591	R
15:16	329877	R
15:16	330105	A
15:18	330544	R
15:19	330888	R
15:19	331195	R
15:20	331478	R
15:21	331771	R
15:22	332060	R
15:23	332341	R
15:23	332637	R
15:24	332920	R
15:25	333203	R
15:26	333491	R
15:27	333781	R
15:27	334069	R
15:28	334349	R
15:29	334640	R
15:30	334922	R
15:31	335207	R
15:31	335498	R
15:32	335784	R
15:33	336069	R
15:34	336354	R
15:35	336643	R
15:35	336928	R
15:36	337213	R
15:37	337492	R
15:38	337774	R
15:39	338062	R
15:39	338346	R
15:40	338632	R
15:41	338917	R
15:42	339191	R
15:42	339406	A
15:43	339706	R
15:44	339994	R
15:45	340263	R
15:45	340546	R
15:46	340821	R
15:47	341094	R
15:48	341377	R
15:49	341658	R
15:49	341930	R
15:50	342212	R
15:51	342497	R
15:51	342719	A
15:53	343153	R
15:54	343455	R
15:54	343734	R
15:55	344014	R
15:56	344287	R
15:57	344565	R
15:57	344838	R
15:58	345068	A
15:59	345370	R
16:00	345656	R
16:00	345862	V
16:01	346202	R
16:02	346488	R
16:03	346766	R
16:04	347045	R
16:04	347324	R
16:05	347601	R
16:06	347880	R
16:07	348161	R
16:07	348454	R
16:08	348731	R
16:09	349008	R
16:10	349293	R
16:11	349572	R
16:11	349855	R
16:12	350146	R
16:13	350434	R
16:14	350707	R
16:14	350935	A
16:15	351242	R
16:16	351531	R
16:17	351818	R
16:18	352095	R
16:18	352374	R
16:19	352649	R
16:20	352927	R
16:21	353212	R
16:21	353495	R
16:22	353770	R
16:23	354045	R
16:24	354287	A
16:25	354603	R
16:25	354895	R
16:26	355183	R
16:27	355458	R
16:28	355740	R
16:28	356026	R
16:29	356304	R
16:30	356581	R
16:31	356862	R
16:32	357142	R
16:32	357419	R
16:33	357704	R
16:34	357978	R
16:35	358260	R
16:35	358540	R
16:36	358817	R
16:37	359097	R
16:37	359278	V
16:39	359664	R
16:39	359949	R
16:40	360237	R
16:41	360518	R
16:42	360795	R
16:42	361077	R
16:43	361363	R
16:44	361647	R
16:45	361868	A
16:46	362183	R
16:46	362495	R
16:47	362796	R
16:48	363100	R
16:49	363396	R
16:50	363696	R
16:51	363991	R
16:51	364294	R
16:52	364589	R
16:53	364887	R
16:54	365188	R
16:55	365483	R
16:56	365776	R
16:56	366075	R
16:57	366178	x
16:58	366634	R
16:59	366934	R
17:00	367243	R
17:00	367535	R
17:01	367829	R
17:02	368127	R
17:03	368415	R
17:04	368702	R
17:04	368992	R
17:05	369283	R
17:06	369570	R
17:07	369859	R
17:08	370148	R
17:08	370437	R
17:09	370726	R
17:10	371016	R
17:11	371309	R
17:12	371596	R
17:12	371878	R
17:13	372168	R
17:14	372453	R
17:15	372728	R
17:16	373006	R
17:16	373290	R
17:17	373567	R
17:18	373851	R
17:19	374143	R
17:20	374425	R
17:20	374709	R
17:21	375002	R
17:22	375293	R
17:23	375584	R
17:24	375874	R
17:24	376163	R
17:25	376448	R
17:26	376742	R
17:27	376957	A
17:27	377278	R
17:28	377579	R
17:29	377872	R
17:30	378169	R
17:31	378464	R
17:32	378747	R
17:32	379044	R
17:33	379138	x
17:34	379576	R
17:35	379885	R
17:36	380188	R
17:36	380479	R
17:37	380772	R
17:38	381073	R
17:39	381358	R
17:40	381642	R
17:40	381933	R
17:41	382212	R
17:42	382498	R
17:43	382789	R
17:44	383079	R
17:44	383369	R
17:45	383666	R
17:46	383955	R
17:47	384260	R
17:48	384559	R
17:49	384856	R
17:49	385147	R
17:50	385444	R
17:51	385735	R
17:52	386031	R
17:53	386326	R
17:53	386613	R
17:54	386917	R
17:55	387211	R
17:56	387497	R
17:57	387797	R
17:58	388086	R
17:58	388375	R
17:59	388671	R
18:00	388965	R
18:01	389252	R
18:02	389535	R
18:02	389821	R
18:03	390106	R
18:04	390391	R
18:05	390681	R
18:05	390955	R
18:06	391237	R
18:07	391518	R
18:08	391804	R
18:09	392087	R
18:09	392372	R
18:10	392668	R
18:11	392958	R
18:12	393253	R
18:13	393541	R
18:14	393840	R
18:14	394135	R
18:15	394429	R
18:16	394736	R
18:17	395033	R
18:18	395325	R
18:18	395631	R
18:19	395931	R
18:20	396228	R
18:21	396521	R
18:22	396804	R
18:23	397096	R
18:23	397395	R
18:24	397691	R
18:25	397984	R
18:26	398272	R
18:27	398567	R
18:27	398860	R
18:28	399155	R
18:29	399365	A
18:30	399668	R
18:31	399976	R
18:31	400261	R
18:32	400565	R
18:33	400867	R
18:34	401161	R
18:35	401464	R
18:36	401775	R
18:36	402073	R
18:37	402368	R
18:38	402669	R
18:39	402962	R
18:40	403259	R
18:41	403561	R
18:41	403848	R
18:42	404137	R
18:43	404448	R
18:44	404750	R
18:45	405041	R
18:45	405342	R
18:46	405639	R
18:47	405936	R
18:48	406234	R
18:49	406529	R
18:49	406750	A
18:50	407067	R
18:51	407367	R
18:52	407676	R
18:53	407976	R
18:54	408269	R
18:54	408575	R
18:55	408871	R
18:56	409172	R
18:57	409481	R
18:57	409570	x
18:58	410022	R
18:59	410336	R
19:00	410645	R
19:01	410954	R
19:02	411251	R
19:03	411554	R
19:04	411861	R
19:04	412164	R
19:05	412466	R
19:06	412768	R
19:07	413068	R
19:08	413370	R
19:09	413678	R
19:09	413979	R
19:10	414279	R
19:11	414585	R
19:12	414891	R
19:13	415193	R
19:14	415503	R
19:15	415801	R
19:15	416099	R
19:16	416410	R
19:17	416709	R
19:18	417003	R
19:19	417303	R
19:19	417597	R
19:20	417892	R
19:21	418191	R
19:22	418495	R
19:23	418790	R
19:24	419081	R
19:24	419381	R
19:25	419676	R
19:26	419962	R
19:27	420246	R
19:28	420543	R
19:28	420833	R
19:29	421118	R
19:30	421410	R
19:31	421696	R
19:32	421978	R
19:32	422265	R
19:33	422506	A
19:34	422814	R
19:35	423098	R
19:36	423388	R
19:36	423666	R
19:37	423946	R
19:38	424181	A
19:39	424482	R
19:39	424765	R
19:40	425038	R
19:41	425315	R
19:42	425588	R
19:42	425863	R
19:43	426136	R
19:44	426414	R
19:45	426697	R
19:46	426979	R
19:46	427273	R
19:47	427558	R
19:48	427842	R
19:49	428136	R
19:50	428423	R
19:50	428712	R
19:51	428996	R
19:52	429284	R
19:53	429567	R
19:54	429856	R
19:54	430144	R
19:55	430422	R
19:56	430651	A
19:57	430984	R
19:57	431279	R
19:58	431569	R
19:59	431854	R
20:00	432147	R
20:01	432440	R
20:02	432735	R
20:02	433033	R
20:03	433330	R
20:04	433625	R
20:05	433916	R
20:06	434222	R
20:07	434521	R
20:07	434814	R
20:08	435114	R
20:09	435411	R
20:10	435707	R
20:11	436010	R
20:11	436305	R
20:12	436597	R
20:13	436898	R
20:14	437202	R
20:15	437503	R
20:16	437807	R
20:16	438107	R
20:17	438409	R
20:18	438717	R
20:19	439019	R
20:20	439323	R
20:21	439624	R
20:22	439923	R
20:22	440228	R
20:23	440534	R
20:24	440823	R
20:25	441126	R
20:26	441426	R
20:26	441717	R
20:27	442025	R
20:28	442323	R
20:29	442611	R
20:30	442908	R
20:31	443207	R
20:31	443499	R
20:32	443786	R
20:33	444078	R
20:34	444363	R
20:35	444655	R
20:35	444950	R
20:36	445233	R
20:37	445521	R
20:38	445793	R
20:39	446088	R
20:39	446381	R
20:40	446665	R
20:41	446953	R
20:42	447237	R
20:43	447520	R
20:43	447726	A
20:44	448038	R
20:45	448326	R
20:46	448610	R
20:46	448911	R
20:47	449204	R
20:48	449494	R
20:49	449787	R
20:50	450083	R
20:51	450373	R
20:51	450673	R
20:52	450974	R
20:53	451270	R
20:54	451570	R
20:55	451875	R
20:56	452175	R
20:56	452484	R
20:57	452779	R
20:58	453085	R
20:59	453396	R
21:00	453701	R
21:01	454014	R
21:02	454323	R
21:02	454625	R
21:03	454941	R
21:04	455249	R
21:05	455556	R
21:06	455866	R
21:07	456176	R
21:08	456487	R
21:08	456804	R
21:09	457112	R
21:10	457423	R
21:11	457737	R
21:12	458050	R
21:13	458356	R
21:14	458656	R
21:14	458965	R
21:15	459269	R
21:16	459572	R
21:17	459882	R
21:18	460182	R
21:19	460477	R
21:19	460789	R
21:20	461089	R
21:21	461385	R
21:22	461691	R
21:23	461996	R
21:24	462296	R
21:25	462607	R
21:25	462913	R
21:26	463206	R
21:27	463507	R
21:28	463811	R
21:29	464100	R
21:29	464389	R
21:30	464690	R
21:31	464977	R
21:32	465271	R
21:33	465576	R
21:34	465867	R
21:34	466168	R
21:35	466472	R
21:36	466771	R
21:37	467070	R
21:38	467363	R
21:39	467665	R
21:39	467961	R
21:40	468251	R
21:41	468554	R
21:42	468847	R
21:43	469137	R
21:43	469436	R
21:44	469736	R
21:45	470031	R
21:46	470323	R
21:47	470630	R
21:48	470924	R
21:48	471224	R
21:49	471533	R
21:50	471832	R
21:51	472129	R
21:52	472436	R
21:53	472733	R
21:53	473035	R
21:54	473329	R
21:55	473626	R
21:56	473932	R
21:57	474234	R
21:58	474539	R
21:59	474846	R
21:59	475151	R
22:00	475463	R
22:01	475774	R
22:02	476081	R
22:03	476389	R
22:04	476701	R
22:05	477006	R
22:05	477321	R
22:06	477630	R
22:07	477935	R
22:08	478248	R
22:09	478564	R
22:10	478872	R
22:11	479181	R
22:11	479496	R
22:12	479805	R
22:13	479884	x
22:14	480367	R
22:15	480685	R
22:16	480992	R
22:16	481291	R
22:17	481582	R
22:18	481875	R
22:19	482151	R
22:20	482440	R
22:20	482682	A
22:21	482995	R
22:22	483301	R
22:23	483601	R
22:24	483894	R
22:24	484198	R
22:25	484506	R
22:26	484801	R
22:27	485094	R
22:28	485400	R
22:29	485695	R
22:29	485990	R
22:30	486296	R
22:31	486592	R
22:32	486889	R
22:33	487185	R
22:34	487489	R
22:34	487790	R
22:35	488082	R
22:36	488388	R
22:37	488626	A
22:38	488984	R
22:38	489105	x
22:38	489189	V
22:39	489575	R
22:40	489881	R
22:41	490195	R
22:42	490505	R
22:43	490810	R
22:44	491116	R
22:45	491427	R
22:45	491656	A
22:46	492022	R
22:47	492358	R
22:48	492679	R
22:49	492999	R
22:50	493319	R
22:51	493640	R
22:52	493951	R
22:52	494261	R
22:53	494571	R
22:54	494885	R
22:55	495199	R
22:56	495512	R
22:57	495825	R
22:58	496142	R
22:59	496462	R
22:59	496778	R
23:00	497004	A
23:01	497375	R
23:02	497707	R
23:03	497897	V
23:04	498348	R
23:05	498663	R
23:06	498977	R
23:06	499212	A
23:07	499575	R
23:08	499905	R
23:09	500230	R
23:10	500552	R
23:11	500874	R
23:12	501203	R
23:13	501524	R
23:14	501841	R
23:14	502163	R
23:15	502475	R
23:16	502783	R
23:17	503104	R
23:18	503330	A
23:19	503699	R
23:20	504039	R
23:20	504356	R
23:21	504676	R
23:22	505002	R
23:23	505315	R
23:24	505632	R
23:25	505945	R
23:26	506249	R
23:27	506564	R
23:27	506873	R
23:28	507099	A
23:29	507455	R
23:30	507761	R
23:31	508075	R
23:32	508385	R
23:32	508606	A
23:33	508948	R
23:34	509255	R
23:35	509558	R
23:36	509869	R
23:36	510092	A
23:37	510435	R
23:38	510741	R
23:39	511053	R
23:40	511359	R
23:41	511659	R
23:42	511964	R
23:42	512264	R
23:43	512486	A
23:44	512843	R
23:45	513150	R
23:46	513459	R
23:46	513687	A
23:47	514036	R
23:48	514351	R
23:49	514658	R
23:50	514888	A
23:51	515240	R
23:52	515557	R
23:52	515873	R
23:53	516182	R
23:54	516488	R
23:55	516804	R
23:56	517109	R
23:57	517409	R
23:58	517720	R
23:58	518026	R
23:59	518331	R
24:00	518649	R
24:01	518961	R
24:02	519269	R
24:03	519585	R
24:04	519899	R
24:05	520211	R
24:05	520521	R
24:06	520831	R
24:07	521142	R
24:08	521458	R
24:09	521778	R
24:10	522089	R
24:11	522402	R
24:12	522726	R
24:12	523040	R
24:13	523344	R
24:14	523655	R
24:15	523967	R
24:16	524275	R
24:17	524583	R
24:18	524891	R
24:18	525201	R
24:19	525509	R
24:20	525817	R
24:21	526121	R
24:22	526428	R
24:23	526738	R
24:24	527044	R
24:24	527358	R
24:25	527671	R
24:26	527973	R
24:27	528278	R
24:28	528587	R
24:29	528889	R
24:29	529191	R
24:30	529486	R
24:31	529793	R
24:32	530095	R
24:33	530392	R
24:34	530702	R
24:35	531007	R
24:35	531302	R
24:36	531614	R
24:37	531798	V
24:38	532206	R
24:39	532513	R
24:40	532813	R
24:40	533110	R
24:41	533408	R
24:42	533711	R
24:43	534011	R
24:44	534309	R
24:45	534617	R
24:45	534925	R
24:46	535227	R
24:47	535529	R
24:48	535840	R
24:49	536147	R
24:50	536454	R
24:51	536768	R
24:51	537073	R
24:52	537376	R
24:53	537686	R
24:54	537991	R
24:55	538289	R
24:56	538600	R
24:56	538909	R
24:57	539219	R
24:58	539536	R
24:59	539845	R
25:00	540161	R
25:01	540480	R
25:02	540791	R
25:03	541105	R
25:03	541413	R
25:04	541723	R
25:05	542037	R
25:06	542344	R
25:07	542658	R
25:08	542975	R
25:09	543279	R
25:09	543594	R
25:10	543905	R
25:11	544210	R
25:12	544525	R
25:13	544834	R
25:14	545138	R
25:15	545451	R
25:15	545756	R
25:16	546056	R
25:17	546370	R
25:18	546675	R
25:19	546980	R
25:20	547289	R
25:21	547592	R
25:21	547895	R
25:22	548199	R
25:23	548504	R
25:24	548809	R
25:25	549109	R
25:26	549415	R
25:27	549724	R
25:27	549942	A
25:28	550261	R
25:29	550573	R
25:30	550872	R
25:31	551183	R
25:31	551489	R
25:32	551787	R
25:33	552090	R
25:34	552399	R
25:35	552704	R
25:36	553002	R
25:36	553305	R
25:37	553604	R
25:38	553906	R
25:39	554207	R
25:40	554503	R
25:41	554800	R
25:41	555099	R
25:42	555392	R
25:43	555696	R
25:44	555989	R
25:45	556288	R
25:46	556592	R
25:46	556792	V
25:47	557084	A
25:48	557461	R
25:49	557773	R
25:50	558086	R
25:51	558395	R
25:51	558699	R
25:52	559005	R
25:53	559310	R
25:54	559607	R
25:55	559910	R
25:56	560220	R
25:56	560515	R
25:57	560816	R
25:58	561126	R
25:59	561430	R
26:00	561735	R
26:01	562034	R
26:02	562333	R
26:02	562629	R
26:03	562930	R
26:04	563228	R
26:05	563520	R
26:06	563802	R
26:06	564017	A
26:07	564334	R
26:08	564628	R
26:09	564921	R
26:10	565220	R
26:10	565517	R
26:11	565823	R
26:12	566136	R
26:13	566438	R
26:14	566741	R
26:15	567059	R
26:16	567370	R
26:16	567669	R
26:17	567977	R
26:18	568275	R
26:19	568576	R
26:20	568885	R
26:21	569185	R
26:21	569490	R
26:22	569803	R
26:23	570114	R
26:24	570432	R
26:25	570743	R
26:26	571057	R
26:26	571256	V
26:27	571669	R
26:28	571924	V
26:29	572290	R
26:30	572591	R
26:31	572903	R
26:32	573211	R
26:33	573513	R
26:33	573819	R
26:34	574124	R
26:35	574436	R
26:36	574746	R
26:37	575057	R
26:38	575365	R
26:39	575679	R
26:39	575994	R
26:40	576304	R
26:41	576612	R
26:42	576919	R
26:43	577228	R
26:44	577538	R
26:45	577849	R
26:46	578163	R
26:46	578468	R
26:47	578781	R
26:48	579089	R
26:48	579230	~
26:49	579395	R
26:50	579699	R
26:51	580008	R
26:51	580307	R
26:52	580607	R
26:53	580912	R
26:54	581200	R
26:55	581496	R
26:56	581795	R
26:56	582079	R
26:57	582310	A
26:58	582623	R
26:59	582921	R
27:00	583207	R
27:00	583494	R
27:01	583781	R
27:02	584015	A
27:03	584323	R
27:03	584605	R
27:04	584888	R
27:05	585083	~
27:05	585164	R
27:06	585422	R
27:06	585691	R
27:07	585952	R
27:08	586211	R
27:09	586471	R
27:09	586736	R
27:10	586990	R
27:11	587244	R
27:11	587501	R
27:12	587762	R
27:13	588009	R
27:14	588259	R
27:14	588504	R
27:14	588576	~
27:15	588753	R
27:16	588996	R
27:16	589240	R
27:17	589485	R
27:18	589727	R
27:18	589980	R
27:19	590209	R
27:20	590449	R
27:20	590575	~
27:20	590695	R
27:21	590938	R
27:22	591180	R
27:22	591417	R
27:23	591664	R
27:24	591910	R
27:24	592155	R
27:25	592400	R
27:26	592648	R
27:26	592894	R
27:27	593134	R
27:28	593379	R
27:28	593628	R
27:29	593869	R
27:30	594109	R
27:30	594350	R
27:31	594593	R
27:32	594833	R
27:32	595074	R
27:33	595321	R
27:34	595566	R
27:35	595808	R
27:35	596051	R
27:36	596297	R
27:37	596543	R
27:37	596787	R
27:38	597031	R
27:39	597273	R
27:39	597515	R
27:40	597757	R
27:41	598001	R
27:41	598243	R
27:42	598489	R
27:43	598735	R
27:43	598979	R
27:44	599221	R
27:45	599410	A
27:45	599689	R
27:46	599940	R
27:47	600182	R
27:47	600435	R
27:48	600681	R
27:49	600925	R
27:49	601173	R
27:50	601426	R
27:51	601670	R
27:51	601917	R
27:52	602166	R
27:53	602424	R
27:54	602665	R
27:54	602914	R
27:55	603161	R
27:56	603409	R
27:56	603657	R
27:57	603910	R
27:58	604163	R
27:58	604417	R
27:59	604666	R
28:00	604920	R
28:01	605173	R
28:01	605431	R
28:02	605683	R
28:03	605935	R
28:03	606182	R
28:04	606437	R
28:05	606685	R
28:05	606931	R
28:06	607186	R
28:07	607442	R
28:08	607693	R
28:08	607943	R
28:09	608203	R
28:10	608459	R
28:10	608713	R
28:11	608964	R
28:12	609224	R
28:12	609473	R
28:13	609727	R
28:14	609980	R
28:15	610237	R
28:15	610487	R
28:16	610743	R
28:17	610994	R
28:17	611252	R
28:18	611506	R
28:19	611761	R
28:20	612009	R
28:20	612207	A
28:21	612626	R
28:22	612891	R
28:23	613155	R
28:23	613414	R
28:24	613669	R
28:25	613920	R
28:26	614178	R
28:26	614432	R
28:27	614682	R
28:28	614932	R
28:28	615123	A
28:29	615398	R
28:30	615650	R
28:30	615906	R
28:31	616162	R
28:32	616356	A
28:32	616642	R
28:33	616898	R
28:34	617156	R
28:35	617412	R
28:35	617669	R
28:36	617922	R
28:37	618176	R
28:37	618429	R
28:38	618685	R
28:39	618937	R
28:39	619197	R
28:40	619449	R
28:41	619699	R
28:42	619946	R
28:42	620205	R
28:43	620454	R
28:44	620705	R
28:44	620953	R
28:45	621209	R
28:46	621458	R
28:46	621591	~
28:46	621708	R
28:47	621965	R
28:47	622066	~
28:48	622219	R
28:49	622462	R
28:49	622709	R
28:50	622956	R
28:51	623206	R
28:51	623451	R
28:52	623700	R
28:53	623946	R
28:53	624132	A
28:54	624416	R
28:55	624673	R
28:55	624926	R
28:56	625184	R
28:57	625438	R
28:58	625692	R
28:58	625947	R
28:59	626207	R
29:00	626466	R
29:00	626714	R
29:01	626972	R
29:02	627225	R
29:02	627413	A
29:03	627591	A
29:04	627847	R
29:04	628108	R
29:05	628356	R
29:06	628607	R
29:06	628866	R
29:07	629121	R
29:08	629374	R
29:08	629620	R
29:09	629875	R
29:10	630121	R
29:11	630372	R
29:11	630626	R
29:12	630884	R
29:13	631132	R
29:13	631386	R
29:14	631636	R
29:15	631893	R
29:15	632147	R
29:16	632403	R
29:17	632651	R
29:18	632908	R
29:18	633163	R
29:19	633418	R
29:20	633671	R
29:20	633929	R
29:21	634185	R
29:22	634434	R
29:23	634696	R
29:23	634956	R
29:24	635216	R
29:25	635470	R
29:25	635731	R
29:26	635991	R
29:27	636247	R
29:28	636508	R
29:28	636775	R
29:29	637030	R
29:30	637288	R
29:30	637480	A
29:31	637904	R
29:32	638173	R
29:33	638430	R
29:34	638686	R
29:34	638941	R
29:35	639199	R
29:36	639394	A
29:36	639675	R
29:37	639932	R
29:38	640186	R
29:38	640438	R
29:39	640633	A
29:40	640915	R
29:41	641172	R
29:41	641417	R
29:42	641675	R
29:43	641928	R
29:43	642176	R
29:44	642432	R
29:45	642691	R
29:45	642940	R
29:46	643193	R
29:47	643450	R
29:48	643714	R
29:48	643968	R
29:49	644225	R
29:50	644479	R
29:50	644734	R
29:51	644988	R
29:52	645250	R
29:53	645510	R
29:53	645768	R
29:54	646026	R
29:55	646250	A
29:55	646536	R
29:56	646798	R
29:57	647064	R
29:58	647316	R
29:58	647517	A
29:59	647802	R
30:00	648068	R
30:00	648330	R
30:01	648600	R
30:02	648792	A
30:03	649226	R
30:03	649429	A
30:04	649742	R
