0:00	163	N
0:01	513	N
0:02	874	N
0:03	1217	N
0:04	1569	N
0:05	1924	N
0:06	2283	N
0:07	2642	N
0:08	3012	N
0:09	3380	N
0:10	3740	N
0:11	4112	N
0:12	4463	N
0:13	4820	N
0:14	5188	N
0:15	5544	N
0:16	5901	N
0:17	6265	N
0:18	6625	N
0:19	6985	N
0:20	7343	N
0:21	7698	N
0:22	8048	N
0:23	8398	N
0:24	8748	N
0:25	9101	N
0:26	9451	N
0:27	9798	N
0:28	10160	N
0:29	10511	N
0:30	10858	N
0:31	11222	N
0:32	11577	N
0:33	11933	N
0:34	12295	N
0:35	12655	N
0:36	13022	N
0:37	13396	N
0:38	13765	N
0:39	14141	N
0:40	14515	N
0:41	14889	N
0:42	15267	N
0:43	15637	N
0:44	16007	N
0:45	16385	N
0:46	16746	N
0:47	17113	N
0:48	17480	N
0:49	17839	N
0:50	18189	N
0:51	18539	N
0:52	18886	N
0:53	19245	N
0:54	19599	N
0:55	19952	N
0:56	20320	N
0:57	20682	N
0:58	21049	N
0:59	21420	N
1:00	21779	N
1:01	22151	N
1:02	22519	N
1:03	22876	N
1:04	23240	N
1:05	23603	N
1:06	23960	N
1:07	24313	N
1:08	24659	N
1:09	25004	N
1:10	25362	N
1:11	25716	N
1:12	26068	N
1:13	26434	N
1:14	26791	N
1:15	27145	N
1:16	27511	N
1:17	27874	N
1:18	28239	N
1:19	28608	N
1:20	28970	N
1:21	29341	N
1:22	29715	N
1:23	30088	N
1:24	30457	N
1:25	30830	N
1:26	31199	N
1:27	31579	N
1:28	31948	N
1:29	32315	N
1:30	32688	N
1:31	33060	N
1:32	33421	N
1:33	33781	N
1:34	34149	N
1:35	34519	N
1:36	34886	N
1:37	35251	N
1:38	35623	N
1:39	35992	N
1:40	36356	N
1:42	36724	N
1:43	37091	N
1:44	37463	N
1:45	37840	N
1:46	38209	N
1:47	38584	N
1:48	38955	N
1:49	39314	N
1:50	39675	N
1:51	40029	N
1:52	40385	N
1:53	40743	N
1:54	41091	N
1:55	41439	N
1:56	41804	N
1:57	42160	N
1:58	42509	N
1:59	42865	N
2:00	43213	N
2:01	43568	N
2:02	43924	N
2:03	44280	N
2:04	44641	N
2:05	45006	N
2:06	45368	N
2:06	45716	N
2:07	46072	N
2:08	46425	N
2:09	46780	N
2:10	47127	N
2:11	47473	N
2:12	47818	N
2:13	48159	N
2:14	48493	N
2:15	48833	N
2:16	49175	N
2:17	49518	N
2:18	49871	N
2:19	50217	N
2:20	50567	N
2:21	50920	N
2:22	51257	N
2:23	51599	N
2:24	51941	N
2:25	52276	N
2:26	52603	N
2:27	52940	N
2:27	53278	N
2:28	53622	N
2:29	53982	N
2:30	54340	N
2:31	54699	N
2:32	55066	N
2:33	55424	N
2:34	55779	N
2:35	56142	N
2:36	56492	N
2:37	56842	N
2:38	57194	N
2:39	57542	N
2:40	57886	N
2:41	58230	N
2:42	58578	N
2:43	58927	N
2:44	59281	N
2:45	59625	N
2:46	59974	N
2:47	60324	N
2:48	60666	N
2:49	61007	N
2:50	61349	N
2:51	61692	N
2:52	62039	N
2:53	62383	N
2:54	62722	N
2:55	63060	N
2:56	63392	N
2:57	63731	N
2:57	64057	N
2:58	64387	N
2:59	64716	N
3:00	65049	N
3:01	65390	N
3:02	65730	N
3:03	66075	N
3:04	66421	N
3:05	66768	N
3:06	67112	N
3:07	67453	N
3:08	67795	N
3:09	68142	N
3:10	68478	N
3:11	68815	N
3:12	69167	N
3:13	69517	N
3:14	69856	N
3:15	70203	N
3:15	70552	N
3:16	70911	N
3:17	71279	N
3:18	71623	N
3:19	71979	N
3:20	72350	N
3:21	72715	N
3:22	73077	N
3:24	73452	N
3:25	73824	N
3:26	74200	N
3:27	74568	N
3:28	74927	N
3:29	75300	N
3:30	75668	N
3:31	76024	N
3:32	76390	N
3:32	76642	~
3:33	76751	N
3:34	77110	N
3:35	77472	N
3:36	77821	N
3:37	78171	N
3:38	78526	N
3:39	78875	N
3:40	79220	N
3:41	79569	N
3:41	79915	N
3:42	80263	N
3:43	80614	N
3:44	80961	N
3:45	81311	N
3:46	81653	N
3:47	82000	N
3:48	82342	N
3:49	82689	N
3:50	83038	N
3:51	83390	N
3:52	83740	N
3:53	84084	N
3:54	84439	N
3:55	84785	N
3:56	85138	N
3:57	85488	N
3:58	85833	N
3:59	86170	N
4:00	86513	N
4:01	86852	N
4:01	87031	~
4:02	87192	N
4:03	87538	N
4:04	87875	N
4:05	88217	N
4:06	88564	N
4:06	88911	N
4:07	89267	N
4:08	89625	N
4:09	89979	N
4:10	90341	N
4:11	90708	N
4:12	91067	N
4:13	91415	N
4:14	91770	N
4:15	92121	N
4:16	92465	N
4:17	92813	N
4:18	93160	N
4:19	93510	N
4:20	93869	N
4:21	94219	N
4:22	94569	N
4:23	94921	N
4:24	95280	N
4:25	95645	N
4:26	96007	N
4:27	96362	N
4:28	96729	N
4:29	97099	N
4:30	97464	N
4:31	97837	N
4:32	98200	N
4:33	98567	N
4:34	98939	N
4:35	99299	N
4:36	99664	N
4:37	100030	N
4:38	100394	N
4:39	100756	N
4:40	101121	N
4:41	101487	N
4:42	101860	N
4:43	102229	N
4:45	102601	N
4:46	102983	N
4:47	103358	N
4:48	103729	N
4:49	104102	N
4:50	104473	N
4:51	104842	N
4:52	105201	N
4:53	105564	N
4:54	105934	N
4:55	106292	N
4:56	106648	N
4:57	107009	N
4:58	107367	N
4:59	107724	N
5:00	108085	N
5:01	108441	N
5:02	108794	N
5:03	109152	N
5:04	109511	N
5:05	109864	N
5:06	110226	N
5:07	110588	N
5:08	110958	N
5:09	111323	N
5:10	111683	N
5:11	112056	N
5:12	112422	N
5:13	112787	N
5:14	113154	N
5:15	113522	N
5:16	113894	N
5:17	114262	N
5:18	114624	N
5:19	114995	N
5:20	115359	N
5:21	115712	N
5:22	116076	N
5:23	116426	N
5:24	116774	N
5:25	117134	N
5:26	117478	N
5:27	117824	N
5:28	118177	N
5:29	118521	N
5:30	118873	N
5:31	119233	N
5:32	119602	N
5:33	119977	N
5:34	120343	N
5:35	120712	N
5:36	121088	N
5:37	121461	N
5:38	121829	N
5:39	122196	N
5:40	122561	N
5:41	122923	N
5:42	123287	N
5:43	123645	N
5:44	124009	N
5:45	124382	N
5:46	124744	N
5:47	125093	N
5:48	125451	N
5:49	125802	N
5:50	126161	N
5:51	126521	N
5:52	126879	N
5:53	127253	N
5:54	127623	N
5:55	127992	N
5:56	128366	N
5:57	128726	N
5:58	129098	N
5:59	129479	N
6:00	129855	N
6:01	130221	N
6:02	130598	N
6:03	130971	N
6:04	131334	N
6:05	131694	N
6:06	132058	N
6:07	132428	N
6:08	132783	N
6:09	133138	N
6:10	133507	N
6:11	133867	N
6:12	134226	N
6:13	134592	N
6:14	134951	N
6:15	135313	N
6:16	135678	N
6:17	136039	N
6:18	136402	N
6:19	136762	N
6:20	137120	N
6:21	137473	N
6:22	137827	N
6:23	138175	N
6:24	138540	N
6:25	138897	N
6:26	139249	N
6:27	139612	N
6:28	139961	N
6:29	140306	N
6:30	140655	N
6:31	141003	N
6:32	141349	N
6:33	141697	N
6:34	142028	N
6:35	142356	N
6:36	142695	N
6:37	143023	N
6:38	143339	N
6:39	143662	N
6:39	143972	N
6:40	144279	N
6:41	144592	N
6:42	144899	N
6:43	145211	N
6:44	145529	N
6:45	145852	N
6:46	146179	N
6:46	146501	N
6:47	146827	N
6:48	147147	N
6:49	147468	N
6:50	147790	N
6:51	148105	N
6:52	148416	N
6:53	148736	N
6:54	149049	N
6:54	149358	N
6:55	149672	N
6:56	149990	N
6:57	150312	N
6:58	150638	N
6:59	150967	N
7:00	151304	N
7:01	151649	N
7:02	151989	N
7:03	152320	N
7:04	152659	N
7:04	152993	N
7:05	153337	N
7:06	153685	N
7:07	154031	N
7:08	154375	N
7:09	154723	N
7:10	155070	N
7:11	155412	N
7:12	155754	N
7:13	156092	N
7:14	156426	N
7:15	156768	N
7:16	157105	N
7:17	157442	N
7:18	157793	N
7:19	158137	N
7:20	158483	N
7:21	158833	N
7:22	159188	N
7:23	159547	N
7:24	159915	N
7:25	160270	N
7:26	160615	N
7:27	160970	N
7:28	161318	N
7:29	161657	N
7:30	162007	N
7:30	162356	N
7:31	162711	N
7:32	163064	N
7:33	163408	N
7:34	163746	N
7:35	164096	N
7:36	164439	N
7:37	164770	N
7:38	165114	N
7:39	165450	N
7:40	165791	N
7:41	166140	N
7:42	166485	N
7:43	166838	N
7:44	167199	N
7:45	167558	N
7:46	167905	N
7:47	168262	N
7:48	168616	N
7:49	168966	N
7:50	169318	N
7:51	169665	N
7:52	170023	N
7:53	170382	N
7:54	170737	N
7:55	171084	N
7:56	171438	N
7:57	171795	N
7:58	172153	N
7:59	172495	N
8:00	172839	N
8:01	173188	N
8:02	173525	N
8:02	173855	N
8:03	174189	N
8:04	174516	N
8:05	174854	N
8:06	175207	N
8:07	175552	N
8:08	175900	N
8:09	176261	N
8:10	176612	N
8:11	176953	N
8:12	177305	N
8:13	177647	N
8:14	177983	N
8:15	178322	N
8:16	178660	N
8:17	179008	N
8:18	179370	N
8:19	179728	N
8:20	180092	N
8:21	180457	N
8:22	180825	N
8:23	181183	N
8:24	181552	N
8:25	181914	N
8:26	182279	N
8:27	182639	N
8:28	182991	N
8:29	183342	N
8:30	183687	N
8:31	184034	N
8:32	184385	N
8:33	184730	N
8:34	185070	N
8:35	185420	N
8:36	185767	N
8:36	186111	N
8:37	186461	N
8:38	186813	N
8:39	187165	N
8:40	187528	N
8:41	187887	N
8:42	188241	N
8:43	188612	N
8:44	188974	N
8:45	189314	N
8:46	189664	N
8:47	190018	N
8:48	190376	N
8:49	190733	N
8:50	191083	N
8:51	191441	N
8:52	191798	N
8:53	192153	N
8:54	192504	N
8:55	192861	N
8:56	193222	N
8:57	193590	N
8:58	193944	N
8:59	194299	N
9:00	194665	N
9:01	195020	N
9:02	195368	N
9:03	195723	N
9:04	196076	N
9:05	196440	N
9:06	196802	N
9:07	197167	N
9:08	197537	N
9:09	197908	N
9:10	198271	N
9:11	198636	N
9:12	199001	N
9:13	199365	N
9:14	199732	N
9:15	200093	N
9:16	200456	N
9:17	200825	N
9:18	201192	N
9:19	201551	N
9:20	201916	N
9:21	202268	N
9:22	202623	N
9:23	202979	N
9:24	203339	N
9:25	203706	N
9:26	204074	N
9:27	204436	N
9:28	204808	N
9:29	205176	N
9:30	205540	N
9:31	205903	N
9:32	206264	N
9:33	206631	N
9:35	207000	N
9:36	207368	N
9:37	207725	N
9:38	208086	N
9:39	208447	N
9:40	208817	N
9:41	209180	N
9:42	209546	N
9:43	209924	N
9:44	210299	N
9:45	210674	N
9:46	211058	N
9:47	211434	N
9:48	211822	N
9:49	212205	N
9:50	212582	N
9:51	212970	N
9:52	213347	N
9:53	213719	N
9:54	214094	N
9:55	214475	N
9:56	214859	N
9:57	215234	N
9:58	215604	N
9:59	215978	N
10:00	216339	N
10:01	216699	N
10:02	217064	N
10:03	217423	N
10:04	217783	N
10:05	218158	N
10:07	218528	N
10:08	218901	N
10:09	219284	N
10:10	219660	N
10:11	220031	N
10:12	220409	N
10:13	220789	N
10:14	221173	N
10:15	221543	N
10:16	221918	N
10:17	222301	N
10:18	222680	N
10:19	223054	N
10:20	223431	N
10:21	223814	N
10:22	224197	N
10:23	224564	N
10:24	224929	N
10:25	225306	N
10:26	225668	N
10:27	226029	N
10:28	226398	N
10:29	226758	N
10:30	227128	N
10:31	227500	N
10:32	227865	N
10:34	228243	N
10:35	228619	N
10:36	228985	N
10:37	229361	N
10:38	229726	N
10:39	230094	N
10:40	230471	N
10:41	230838	N
10:42	231209	N
10:43	231583	N
10:44	231951	N
10:45	232321	N
10:46	232687	N
10:47	233045	N
10:48	233414	N
10:49	233769	N
10:50	234134	N
10:51	234506	N
10:52	234872	N
10:53	235233	N
10:54	235593	N
10:55	235951	N
10:56	236318	N
10:57	236682	N
10:58	237043	N
10:59	237407	N
11:00	237769	N
11:01	238128	N
11:02	238493	N
11:03	238858	N
11:04	239231	N
11:05	239605	N
11:06	239977	N
11:07	240356	N
11:08	240731	N
11:09	241107	N
11:10	241476	N
11:11	241849	N
11:12	242225	N
11:13	242589	N
11:14	242963	N
11:15	243339	N
11:16	243707	N
11:18	244084	N
11:19	244452	N
11:20	244817	N
11:21	245192	N
11:22	245564	N
11:23	245927	N
11:24	246281	N
11:25	246652	N
11:26	247013	N
11:27	247360	N
11:28	247722	N
11:29	248084	N
11:30	248442	N
11:31	248805	N
11:32	249156	N
11:33	249520	N
11:34	249884	N
11:35	250238	N
11:36	250598	N
11:37	250964	N
11:38	251327	N
11:39	251699	N
11:40	252053	N
11:41	252415	N
11:42	252782	N
11:43	253143	N
11:44	253496	N
11:45	253855	N
11:46	254212	N
11:47	254573	N
11:48	254933	N
11:49	255291	N
11:50	255652	N
11:51	256008	N
11:52	256366	N
11:53	256731	N
11:54	257091	N
11:55	257448	N
11:56	257809	N
11:57	258170	N
11:58	258538	N
11:59	258919	N
12:00	259292	N
12:01	259646	N
12:02	260014	N
12:03	260381	N
12:04	260751	N
12:05	261122	N
12:06	261475	N
12:07	261843	N
12:08	262210	N
12:09	262570	N
12:10	262942	N
12:11	263310	N
12:12	263685	N
12:13	264069	N
12:14	264444	N
12:15	264806	N
12:16	265182	N
12:17	265555	N
12:18	265917	N
12:19	266279	N
12:20	266647	N
12:21	267026	N
12:22	267398	N
12:23	267766	N
12:24	268152	N
12:25	268523	N
12:26	268891	N
12:27	269265	N
12:29	269640	N
12:30	270021	N
12:31	270395	N
12:32	270765	N
12:33	271132	N
12:34	271494	N
12:35	271846	N
12:36	272203	N
12:37	272562	N
12:38	272931	N
12:39	273298	N
12:40	273660	N
12:41	274033	N
12:42	274397	N
12:43	274767	N
12:44	275133	N
12:45	275493	N
12:46	275852	N
12:47	276221	N
12:48	276577	N
12:49	276932	N
12:50	277288	N
12:51	277628	N
12:52	277966	N
12:53	278320	N
12:54	278668	N
12:55	279023	N
12:56	279383	N
12:57	279738	N
12:58	280098	N
12:59	280455	N
13:00	280811	N
13:01	281161	N
13:01	281508	N
13:02	281860	N
13:03	282216	N
13:04	282567	N
13:05	282905	N
13:06	283251	N
13:07	283602	N
13:08	283959	N
13:09	284324	N
13:10	284688	N
13:11	285053	N
13:12	285420	N
13:13	285774	N
13:14	286136	N
13:15	286500	N
13:16	286864	N
13:17	287214	N
13:18	287571	N
13:19	287924	N
13:20	288286	N
13:21	288637	N
13:22	288986	N
13:23	289347	N
13:24	289700	N
13:25	290054	N
13:26	290413	N
13:27	290760	N
13:28	291125	N
13:29	291497	N
13:30	291863	N
13:31	292231	N
13:32	292600	N
13:33	292972	N
13:34	293329	N
13:35	293697	N
13:36	294059	N
13:37	294426	N
13:38	294787	N
13:39	295146	N
13:40	295516	N
13:41	295882	N
13:42	296235	N
13:43	296599	N
13:44	296957	N
13:45	297323	N
13:46	297689	N
13:47	298051	N
13:48	298415	N
13:49	298784	N
13:50	299152	N
13:51	299509	N
13:53	299881	N
13:54	300244	N
13:55	300614	N
13:56	300977	N
13:57	301338	N
13:58	301711	N
13:59	302072	N
14:00	302426	N
14:01	302785	N
14:02	303137	N
14:03	303488	N
14:03	303838	N
14:04	304187	N
14:05	304535	N
14:06	304890	N
14:07	305242	N
14:08	305592	N
14:09	305943	N
14:10	306295	N
14:11	306654	N
14:12	307007	N
14:13	307367	N
14:14	307727	N
14:15	308079	N
14:16	308432	N
14:17	308800	N
14:18	309167	N
14:19	309531	N
14:20	309901	N
14:21	310266	N
14:22	310630	N
14:23	311005	N
14:24	311376	N
14:25	311740	N
14:26	312106	N
14:27	312467	N
14:28	312834	N
14:30	313202	N
14:31	313572	N
14:32	313950	N
14:33	314320	N
14:34	314683	N
14:35	315048	N
14:36	315405	N
14:37	315771	N
14:38	316141	N
14:39	316504	N
14:40	316874	N
14:41	317240	N
14:42	317601	N
14:43	317967	N
14:44	318325	N
14:45	318694	N
14:46	319075	N
14:47	319448	N
14:48	319822	N
14:49	320201	N
14:50	320574	N
14:51	320940	N
14:52	321310	N
14:53	321675	N
14:54	322043	N
14:55	322396	N
14:56	322745	N
14:57	323116	N
14:58	323474	N
14:59	323824	N
15:00	324187	N
15:01	324546	N
15:02	324900	N
15:03	325257	N
15:04	325613	N
15:05	325970	N
15:06	326332	N
15:07	326693	N
15:08	327057	N
15:09	327414	N
15:10	327776	N
15:11	328143	N
15:12	328499	N
15:13	328849	N
15:14	329210	N
15:15	329560	N
15:16	329912	N
15:17	330267	N
15:18	330615	N
15:19	330970	N
15:20	331324	N
15:21	331682	N
15:22	332040	N
15:23	332405	N
15:24	332764	N
15:25	333119	N
15:26	333470	N
15:27	333831	N
15:28	334201	N
15:29	334562	N
15:30	334918	N
15:31	335286	N
15:32	335653	N
15:33	336004	N
15:34	336365	N
15:35	336723	N
15:36	337076	N
15:37	337438	N
15:38	337792	N
15:39	338146	N
15:40	338497	N
15:41	338850	N
15:42	339196	N
15:43	339548	N
15:44	339895	N
15:45	340239	N
15:46	340578	N
15:47	340928	N
15:48	341286	N
15:48	341637	N
15:49	341993	N
15:50	342347	N
15:51	342693	N
15:52	343046	N
15:53	343406	N
15:54	343767	N
15:55	344128	N
15:56	344502	N
15:57	344865	N
15:58	345209	N
15:59	345561	N
16:00	345905	N
16:01	346246	N
16:02	346592	N
16:03	346926	N
16:04	347257	N
16:05	347589	N
16:06	347939	N
16:07	348278	N
16:08	348621	N
16:09	348964	N
16:10	349318	N
16:11	349679	N
16:12	350047	N
16:13	350418	N
16:14	350799	N
16:15	351171	N
16:16	351550	N
16:17	351928	N
16:18	352312	N
16:19	352703	N
16:20	353087	N
16:21	353479	N
16:22	353865	N
16:24	354250	N
16:25	354623	N
16:26	354995	N
16:27	355371	N
16:28	355756	N
16:29	356121	N
16:30	356487	N
16:31	356870	N
16:32	357249	N
16:33	357623	N
16:34	357998	N
16:35	358367	N
16:36	358744	N
16:37	359121	N
16:38	359487	N
16:39	359871	N
16:40	360253	N
16:41	360619	N
16:42	360994	N
16:43	361370	N
16:44	361758	N
16:45	362133	N
16:46	362508	N
16:48	362885	N
16:49	363263	N
16:50	363634	N
16:51	364008	N
16:51	364260	A
16:53	364716	N
16:53	364922	V
16:55	365447	N
16:56	365827	N
16:57	366195	N
16:58	366551	N
16:59	366926	N
17:00	367295	N
17:01	367670	N
17:02	368047	N
17:03	368414	N
17:04	368789	N
17:05	369149	N
17:06	369513	N
17:07	369880	N
17:08	370236	N
17:09	370601	N
17:10	370966	N
17:11	371324	N
17:12	371684	N
17:13	372056	N
17:14	372416	N
17:15	372771	N
17:16	373130	N
17:17	373486	N
17:18	373847	N
17:19	374202	N
17:20	374555	N
17:21	374922	N
17:22	375283	N
17:23	375640	N
17:24	376000	N
17:25	376352	N
17:26	376709	N
17:27	377072	N
17:28	377428	N
17:29	377789	N
17:30	378153	N
17:31	378514	N
17:32	378872	N
17:33	379236	N
17:34	379593	N
17:35	379954	N
17:36	380310	N
17:37	380664	N
17:38	381025	N
17:39	381381	N
17:40	381737	N
17:41	382098	N
17:42	382457	N
17:43	382816	N
17:44	383187	N
17:45	383553	N
17:46	383917	N
17:47	384284	N
17:48	384644	N
17:49	384989	N
17:50	385331	N
17:51	385676	N
17:52	386030	N
17:53	386389	N
17:54	386737	N
17:55	387102	N
17:56	387475	N
17:57	387851	N
17:58	388224	N
17:59	388586	N
18:00	388957	N
18:01	389335	N
18:02	389696	N
18:03	390050	N
18:04	390420	N
18:05	390777	N
18:06	391131	N
18:07	391488	N
18:08	391844	N
18:09	392202	N
18:10	392559	N
18:11	392915	N
18:12	393275	N
18:13	393637	N
18:14	393995	N
18:15	394355	N
18:16	394718	N
18:17	395083	N
18:18	395453	N
18:19	395818	N
18:20	396187	N
18:21	396559	N
18:22	396932	N
18:23	397297	N
18:24	397657	N
18:25	398024	N
18:26	398390	N
18:27	398744	N
18:28	399104	N
18:29	399477	N
18:30	399839	N
18:31	400202	N
18:32	400573	N
18:33	400937	N
18:34	401302	N
18:35	401664	N
18:36	402025	N
18:37	402397	N
18:38	402766	N
18:39	403125	N
18:40	403480	N
18:41	403836	N
18:42	404197	N
18:43	404566	N
18:44	404933	N
18:45	405300	N
18:46	405670	N
18:47	406037	N
18:48	406396	N
18:49	406754	N
18:50	407113	N
18:51	407478	N
18:52	407843	N
18:53	408201	N
18:54	408578	N
18:55	408947	N
18:56	409313	N
18:58	409690	N
18:59	410059	N
19:00	410425	N
19:01	410799	N
19:02	411171	N
19:03	411543	N
19:04	411913	N
19:05	412286	N
19:06	412662	N
19:07	413032	N
19:08	413404	N
19:09	413782	N
19:10	414154	N
19:11	414531	N
19:12	414908	N
19:13	415277	N
19:14	415650	N
19:15	416022	N
19:16	416398	N
19:17	416783	N
19:18	417157	N
19:19	417538	N
19:20	417920	N
19:21	418300	N
19:22	418676	N
19:24	419040	N
19:25	419412	N
19:26	419786	N
19:27	420152	N
19:28	420516	N
19:29	420887	N
19:30	421259	N
19:31	421621	N
19:32	421990	N
19:33	422362	N
19:34	422735	N
19:35	423110	N
19:36	423484	N
19:37	423864	N
19:38	424237	N
19:39	424607	N
19:40	424979	N
19:41	425353	N
19:42	425733	N
19:43	426106	N
19:44	426481	N
19:45	426859	N
19:46	427234	N
19:47	427607	N
19:48	427980	N
19:49	428357	N
19:50	428733	N
19:51	429111	N
19:53	429485	N
19:54	429866	N
19:55	430239	N
19:56	430613	N
19:57	430989	N
19:58	431358	N
19:59	431737	N
20:00	432114	N
20:01	432484	N
20:02	432857	N
20:03	433236	N
20:04	433611	N
20:05	433981	N
20:06	434347	N
20:07	434719	N
20:08	435103	N
20:09	435481	N
20:10	435862	N
20:11	436248	N
20:12	436631	N
20:13	437011	N
20:14	437384	N
20:16	437761	N
20:17	438147	N
20:18	438526	N
20:19	438905	N
20:20	439291	N
20:21	439675	N
20:22	440054	N
20:23	440435	N
20:24	440805	N
20:25	441185	N
20:26	441554	N
20:27	441921	N
20:28	442297	N
20:29	442665	N
20:30	443024	N
20:31	443392	N
20:32	443758	N
20:33	444121	N
20:34	444483	N
20:35	444840	N
20:36	445209	N
20:37	445574	N
20:38	445930	N
20:39	446289	N
20:40	446638	N
20:41	446998	N
20:42	447365	N
20:43	447723	N
20:44	448086	N
20:45	448454	N
20:46	448814	N
20:47	449168	N
20:48	449529	N
20:49	449890	N
20:50	450250	N
20:51	450601	N
20:52	450952	N
20:53	451314	N
20:54	451665	N
20:55	452019	N
20:56	452387	N
20:57	452753	N
20:58	453120	N
20:59	453493	N
21:00	453866	N
21:01	454246	N
21:02	454619	N
21:03	454987	N
21:04	455359	N
21:05	455734	N
21:06	456110	N
21:08	456491	N
21:09	456865	N
21:10	457242	N
21:11	457616	N
21:12	457983	N
21:13	458351	N
21:14	458728	N
21:15	459100	N
21:16	459478	N
21:17	459852	N
21:18	460231	N
21:19	460610	N
21:20	460989	N
21:21	461363	N
21:22	461730	N
21:23	462102	N
21:24	462479	N
21:25	462849	N
21:26	463212	N
21:27	463583	N
21:28	463941	N
21:29	464302	N
21:30	464661	N
21:31	465023	N
21:32	465389	N
21:33	465762	N
21:34	466124	N
21:35	466493	N
21:36	466865	N
21:37	467231	N
21:38	467604	N
21:39	467967	N
21:40	468332	N
21:41	468705	N
21:42	469070	N
21:43	469432	N
21:45	469800	N
21:46	470165	N
21:47	470522	N
21:48	470881	N
21:49	471246	N
21:50	471614	N
21:51	471972	N
21:52	472327	N
21:53	472692	N
21:54	473042	N
21:54	473381	N
21:55	473740	N
21:56	474091	N
21:57	474458	N
21:58	474827	N
21:59	475192	N
22:01	475570	N
22:02	475955	N
22:03	476333	N
22:04	476714	N
22:05	477096	N
22:06	477482	N
22:07	477873	N
22:08	478253	N
22:09	478645	N
22:10	479041	N
22:11	479424	N
22:12	479805	N
22:13	480186	N
22:14	480567	N
22:15	480952	N
22:16	481318	N
22:18	481701	N
22:19	482083	N
22:20	482466	N
22:21	482837	N
22:22	483208	N
22:23	483587	N
22:24	483964	N
22:25	484335	N
22:26	484711	N
22:27	485098	N
22:28	485479	N
22:29	485852	N
22:30	486233	N
22:31	486615	N
22:32	487003	N
22:33	487369	N
22:34	487745	N
22:35	488123	N
22:36	488499	N
22:37	488870	N
22:38	489236	N
22:39	489591	N
22:41	489963	N
22:42	490326	N
22:43	490684	N
22:44	491058	N
22:45	491429	N
22:46	491800	N
22:47	492181	N
22:48	492559	N
22:49	492932	N
22:50	493304	N
22:51	493674	N
22:52	494054	N
22:53	494421	N
22:54	494793	N
22:55	495173	N
22:56	495544	N
22:57	495917	N
22:58	496295	N
22:59	496666	N
23:00	497038	N
23:01	497406	N
23:02	497762	N
23:03	498125	N
23:04	498484	N
23:05	498853	N
23:06	499225	N
23:07	499597	N
23:08	499974	N
23:09	500349	N
23:10	500713	N
23:11	501093	N
23:12	501476	N
23:14	501855	N
23:15	502241	N
23:16	502616	N
23:17	502996	N
23:18	503383	N
23:19	503766	N
23:20	504149	N
23:21	504533	N
23:22	504920	N
23:23	505303	N
23:24	505678	N
23:25	506059	N
23:26	506438	N
23:27	506819	N
23:28	507203	N
23:29	507580	N
23:31	507961	N
23:32	508337	N
23:33	508709	N
23:34	509087	N
23:35	509472	N
23:36	509855	N
23:37	510243	N
23:38	510624	N
23:39	511002	N
23:40	511377	N
23:41	511749	N
23:42	512126	N
23:43	512507	N
23:44	512885	N
23:45	513259	N
23:46	513639	N
23:47	514024	N
23:48	514403	N
23:49	514775	N
23:50	515145	N
23:51	515518	N
23:52	515877	N
23:54	516240	N
23:55	516605	N
23:56	516972	N
23:57	517341	N
23:58	517710	N
23:59	518062	N
24:00	518431	N
24:01	518799	N
24:02	519168	N
24:03	519545	N
24:04	519921	N
24:05	520299	N
24:06	520673	N
24:07	521042	N
24:08	521389	N
24:09	521741	N
24:10	522111	N
24:11	522478	N
24:12	522844	N
24:13	523214	N
24:14	523594	N
24:15	523971	N
24:16	524352	N
24:17	524731	N
24:18	525113	N
24:19	525492	N
24:20	525871	N
24:21	526249	N
24:22	526625	N
24:23	526992	N
24:24	527361	N
24:25	527736	N
24:26	528100	N
24:27	528454	N
24:28	528815	N
24:29	529183	N
24:30	529552	N
24:31	529918	N
24:33	530282	N
24:34	530652	N
24:35	531015	N
24:35	531345	N
24:36	531681	N
24:37	532011	N
24:38	532336	N
24:39	532667	N
24:40	532991	N
24:41	533310	N
24:42	533644	N
24:43	533973	N
24:44	534306	N
24:45	534644	N
24:46	534976	N
24:46	535304	N
24:47	535641	N
24:48	535975	N
24:49	536307	N
24:50	536651	N
24:51	536983	N
24:52	537319	N
24:53	537657	N
24:54	537992	N
24:55	538340	N
24:56	538695	N
24:57	539039	N
24:58	539379	N
24:59	539733	N
25:00	540077	N
25:01	540415	N
25:02	540764	N
25:03	541113	N
25:04	541465	N
25:05	541816	N
25:06	542168	N
25:06	542517	N
25:07	542879	N
25:08	543238	N
25:09	543593	N
25:10	543952	N
25:11	544308	N
25:12	544676	N
25:13	545034	N
25:14	545385	N
25:15	545741	N
25:16	546089	N
25:17	546441	N
25:18	546791	N
25:19	547140	N
25:20	547493	N
25:21	547846	N
25:22	548191	N
25:23	548537	N
25:24	548894	N
25:25	549243	N
25:26	549578	N
25:27	549919	N
25:28	550255	N
25:29	550584	N
25:30	550923	N
25:31	551250	N
25:32	551575	N
25:33	551906	N
25:33	552232	N
25:34	552550	N
25:35	552873	N
25:36	553194	N
25:37	553511	N
25:38	553833	N
25:39	554148	N
25:40	554456	N
25:41	554769	N
25:41	555088	N
25:42	555393	N
25:43	555695	N
25:44	556006	N
25:45	556311	N
25:45	556476	~
25:46	556613	N
25:46	556917	N
25:47	557214	N
25:48	557506	N
25:49	557796	N
25:50	558091	N
25:51	558374	N
25:51	558651	N
25:52	558798	~
25:52	558932	N
25:53	559209	N
25:53	559315	~
25:54	559483	N
25:54	559758	N
25:55	560036	N
25:56	560307	N
25:57	560582	N
25:57	560858	N
25:58	561137	N
25:59	561411	N
26:00	561687	N
26:00	561957	N
26:01	562123	~
26:01	562236	N
26:02	562511	N
26:02	562564	~
26:03	562789	N
26:04	563072	N
26:04	563349	N
26:05	563629	N
26:06	563905	N
26:07	564189	N
26:07	564466	N
26:08	564744	N
26:09	564871	~
26:09	565016	N
26:10	565291	N
26:11	565562	N
26:11	565829	N
26:12	566100	N
26:13	566368	N
26:13	566632	N
26:14	566894	N
26:15	567167	N
26:16	567431	N
26:16	567701	N
26:17	567965	N
26:18	568239	N
26:19	568510	N
26:19	568785	N
26:20	569063	N
26:21	569345	N
26:22	569620	N
26:23	569895	N
26:23	570177	N
26:24	570460	N
26:25	570744	N
26:26	571022	N
26:26	571313	N
26:27	571599	N
26:28	571884	N
26:29	572177	N
26:30	572466	N
26:30	572749	N
26:31	573034	N
26:32	573326	N
26:33	573604	N
26:34	573886	N
26:34	574163	N
26:35	574437	N
26:36	574714	N
26:37	574990	N
26:37	575268	N
26:38	575540	N
26:39	575815	N
26:40	576087	N
26:41	576369	N
26:41	576649	N
26:42	576925	N
26:43	577205	N
26:44	577484	N
26:44	577764	N
26:45	578045	N
26:46	578331	N
26:47	578609	N
26:48	578888	N
26:48	579171	N
26:49	579453	N
26:50	579735	N
26:51	580012	N
26:51	580291	N
26:52	580570	N
26:53	580847	N
26:54	581123	N
26:55	581405	N
26:55	581676	N
26:56	581949	N
26:57	582222	N
26:58	582497	N
26:58	582766	N
26:59	583028	N
27:00	583293	N
27:00	583557	N
27:01	583819	N
27:02	584081	N
27:03	584344	N
27:03	584605	N
27:04	584868	N
27:05	585124	N
27:06	585395	N
27:06	585652	N
27:07	585918	N
27:08	586176	N
27:09	586448	N
27:09	586715	N
27:10	586984	N
27:11	587256	N
27:12	587534	N
27:12	587809	N
27:13	588078	N
27:14	588360	N
27:15	588638	N
27:15	588916	N
27:16	589190	N
27:17	589479	N
27:18	589763	N
27:19	590051	N
27:19	590342	N
27:20	590632	N
27:21	590919	N
27:22	591204	N
27:23	591499	N
27:23	591778	N
27:24	592063	N
27:25	592340	N
27:26	592626	N
27:26	592913	N
27:27	593198	N
27:28	593495	N
27:29	593779	N
27:30	594072	N
27:31	594366	N
27:31	594667	N
27:32	594965	N
27:33	595252	N
27:33	595291	~
27:34	595542	N
27:35	595840	N
27:35	596129	N
27:36	596429	N
27:37	596543	~
27:37	596728	N
27:38	597028	N
27:39	597328	N
27:40	597638	N
27:40	597941	N
27:41	598240	N
27:42	598537	N
27:43	598838	N
27:44	599139	N
27:45	599448	N
27:45	599759	N
27:46	600057	N
27:47	600361	N
27:48	600679	N
27:49	600988	N
27:50	601293	N
27:51	601599	N
27:51	601905	N
27:52	602209	N
27:53	602522	N
27:54	602830	N
27:55	603138	N
27:56	603442	N
27:57	603764	N
27:57	604078	N
27:58	604384	N
27:59	604692	N
28:00	605004	N
28:01	605319	N
28:02	605639	N
28:03	605948	N
28:04	606260	N
28:04	606572	N
28:05	606888	N
28:06	607200	N
28:07	607507	N
28:08	607821	N
28:09	608122	N
28:10	608431	N
28:10	608740	N
28:11	609048	N
28:12	609360	N
28:13	609673	N
28:14	609989	N
28:15	610292	N
28:16	610590	N
28:16	610898	N
28:17	611197	N
28:18	611496	N
28:19	611802	N
28:20	612104	N
28:21	612405	N
28:21	612711	N
28:22	613015	N
28:23	613316	N
28:24	613609	N
28:25	613908	N
28:26	614203	N
28:26	614501	N
28:27	614801	N
28:28	615099	N
28:29	615392	N
28:30	615689	N
28:31	615997	N
28:31	616299	N
28:32	616596	N
28:33	616906	N
28:34	617207	N
28:35	617511	N
28:36	617820	N
28:37	618126	N
28:37	618432	N
28:38	618733	N
28:39	619045	N
28:40	619354	N
28:41	619657	N
28:42	619971	N
28:42	620276	N
28:43	620586	N
28:44	620900	N
28:45	621215	N
28:46	621525	N
28:47	621845	N
28:48	622162	N
28:49	622476	N
28:49	622781	N
28:50	623091	N
28:51	623396	N
28:52	623701	N
28:53	624005	N
28:54	624305	N
28:55	624608	N
28:55	624917	N
28:56	625225	N
28:57	625536	N
28:58	625842	N
28:59	626159	N
29:00	626471	N
29:01	626789	N
29:01	627103	N
29:02	627413	N
29:03	627714	N
29:04	628031	N
29:05	628342	N
29:06	628651	N
29:06	628697	~
29:07	628963	N
29:07	629271	N
29:08	629412	~
29:08	629582	N
29:09	629901	N
29:10	630212	N
29:11	630522	N
29:12	630828	N
29:13	631141	N
29:14	631449	N
29:14	631749	N
29:15	632051	N
29:16	632353	N
29:17	632658	N
29:18	632962	N
29:19	633271	N
29:19	633571	N
29:20	633871	N
29:21	634184	N
29:22	634485	N
29:23	634771	N
29:24	635052	N
29:24	635348	N
29:25	635637	N
29:26	635926	N
29:27	636217	N
29:28	636503	N
29:28	636791	N
29:29	637084	N
29:30	637377	N
29:31	637671	N
29:32	637956	N
29:32	638252	N
29:33	638543	N
29:34	638836	N
29:35	639136	N
29:36	639431	N
29:37	639729	N
29:37	640029	N
29:38	640332	N
29:39	640633	N
29:40	640929	N
29:41	641233	N
29:42	641535	N
29:42	641840	N
29:43	642150	N
29:44	642457	N
29:45	642763	N
29:46	643069	N
29:47	643381	N
29:48	643685	N
29:48	643979	N
29:49	644285	N
29:50	644583	N
29:51	644873	N
29:52	645172	N
29:52	645469	N
29:53	645756	N
29:54	646047	N
29:55	646348	N
29:56	646634	N
29:57	646932	N
29:57	647226	N
29:58	647518	N
29:59	647817	N
30:00	648112	N
30:01	648405	N
30:01	648705	N
30:02	648996	N
30:03	649287	N
30:04	649587	N
30:05	649878	N
