0:00	93	N
0:00	326	N
0:01	561	N
0:02	798	N
0:02	1017	N
0:03	1253	N
0:04	1488	N
0:04	1730	N
0:05	1967	N
0:06	2208	N
0:06	2448	N
0:07	2692	N
0:08	2935	N
0:08	3184	N
0:09	3435	N
0:10	3686	N
0:10	3935	N
0:11	4182	N
0:12	4427	N
0:13	4682	N
0:13	4933	N
0:14	5183	N
0:15	5425	N
0:15	5678	N
0:16	5929	N
0:17	6178	N
0:17	6417	N
0:18	6680	N
0:19	6926	N
0:19	7164	N
0:20	7406	N
0:21	7659	N
0:21	7904	N
0:22	8149	N
0:23	8377	N
0:23	8618	N
0:24	8860	N
0:25	9097	N
0:25	9332	N
0:26	9571	N
0:27	9817	N
0:27	10058	N
0:28	10298	N
0:29	10534	N
0:29	10786	N
0:30	11033	N
0:31	11278	N
0:32	11528	N
0:32	11778	N
0:33	12030	N
0:34	12280	N
0:34	12538	N
0:35	12793	N
0:36	13045	N
0:36	13295	N
0:37	13553	N
0:38	13805	N
0:39	14055	N
0:39	14301	N
0:40	14554	N
0:41	14804	N
0:41	15052	N
0:42	15305	N
0:43	15560	N
0:43	15810	N
0:44	16060	N
0:45	16310	N
0:46	16564	N
0:46	16819	N
0:47	17073	N
0:48	17319	N
0:48	17572	N
0:49	17826	N
0:50	18079	N
0:50	18334	N
0:51	18596	N
0:52	18857	N
0:53	19112	N
0:53	19358	N
0:54	19630	N
0:55	19884	N
0:55	20145	N
0:56	20400	N
0:57	20662	N
0:58	20905	N
0:58	21164	N
0:59	21420	N
1:00	21676	N
1:00	21913	N
1:01	22157	N
1:02	22406	N
1:02	22658	N
1:03	22902	N
1:04	23144	N
1:04	23380	N
1:05	23634	N
1:06	23879	N
1:07	24129	N
1:07	24376	N
1:08	24625	N
1:09	24875	N
1:09	25125	N
1:10	25376	N
1:11	25632	N
1:11	25879	N
1:12	26128	N
1:13	26374	N
1:13	26625	N
1:14	26871	N
1:15	27113	N
1:16	27360	N
1:16	27612	N
1:17	27858	N
1:18	28106	N
1:18	28360	N
1:19	28614	N
1:20	28868	N
1:20	29122	N
1:21	29378	N
1:22	29632	N
1:23	29889	N
1:23	30145	N
1:24	30403	N
1:25	30659	N
1:25	30902	N
1:26	31149	N
1:27	31402	N
1:27	31653	N
1:28	31904	N
1:29	32140	N
1:29	32386	N
1:30	32640	N
1:31	32888	N
1:32	33139	N
1:32	33394	N
1:33	33636	N
1:34	33887	N
1:34	34136	N
1:35	34392	N
1:36	34631	N
1:36	34872	N
1:37	35112	N
1:38	35361	N
1:38	35601	N
1:39	35842	N
1:40	36076	N
1:40	36315	N
1:41	36565	N
1:42	36808	N
1:42	37055	N
1:43	37307	N
1:44	37556	N
1:45	37800	N
1:45	38049	N
1:46	38302	N
1:47	38552	N
1:47	38804	N
1:48	39057	N
1:49	39323	N
1:49	39582	N
1:50	39840	N
1:51	40096	N
1:52	40359	N
1:52	40613	N
1:53	40873	N
1:54	41128	N
1:54	41391	N
1:55	41645	N
1:56	41904	N
1:57	42161	N
1:57	42419	N
1:58	42675	N
1:59	42931	N
1:59	43195	N
2:00	43454	N
2:01	43713	N
2:02	43967	N
2:02	44234	N
2:03	44501	N
2:04	44775	N
2:05	45042	N
2:05	45309	N
2:06	45575	N
2:07	45836	N
2:08	46102	N
2:08	46364	N
2:09	46621	N
2:10	46873	N
2:10	47135	N
2:11	47392	N
2:12	47644	N
2:13	47895	N
2:13	48157	N
2:14	48408	N
2:15	48659	N
2:15	48907	N
2:16	49161	N
2:17	49406	N
2:17	49660	N
2:18	49905	N
2:19	50157	N
2:20	50403	N
2:20	50646	N
2:21	50899	N
2:22	51151	N
2:22	51400	N
2:23	51643	N
2:24	51883	N
2:24	52138	N
2:25	52383	N
2:26	52628	N
2:26	52867	N
2:27	53114	N
2:28	53350	N
2:28	53596	N
2:29	53844	N
2:30	54095	N
2:30	54342	N
2:31	54586	N
2:32	54837	N
2:33	55094	N
2:33	55342	N
2:34	55594	N
2:35	55836	N
2:35	56083	N
2:36	56329	N
2:37	56577	N
2:37	56828	N
2:38	57082	N
2:39	57333	N
2:39	57585	N
2:40	57841	N
2:41	58109	N
2:42	58372	N
2:42	58635	N
2:43	58891	N
2:44	59161	N
2:45	59427	N
2:45	59697	N
2:46	59971	N
2:47	60236	N
2:48	60492	N
2:48	60750	N
2:49	61016	N
2:50	61275	N
2:50	61534	N
2:51	61783	N
2:52	62056	N
2:53	62322	N
2:53	62591	N
2:54	62861	N
2:55	63125	N
2:56	63385	N
2:56	63647	N
2:57	63913	N
2:58	64182	N
2:59	64454	N
2:59	64724	N
3:00	65006	N
3:01	65298	N
3:02	65598	N
3:03	65910	N
3:03	66227	N
3:04	66536	N
3:05	66861	N
3:06	67190	N
3:07	67502	N
3:08	67805	N
3:09	68106	N
3:09	68394	N
3:10	68674	N
3:11	68951	N
3:12	69226	N
3:13	69502	N
3:13	69769	N
3:14	70039	N
3:15	70305	N
3:16	70573	N
3:16	70837	N
3:17	71104	N
3:18	71359	N
3:18	71617	N
3:19	71878	N
3:20	72138	N
3:21	72393	N
3:21	72642	N
3:22	72896	N
3:23	73148	N
3:23	73402	N
3:24	73647	N
3:25	73904	N
3:25	74148	N
3:26	74394	N
3:27	74645	N
3:28	74899	N
3:28	75146	N
3:29	75394	N
3:30	75638	N
3:30	75893	N
3:31	76138	N
3:32	76391	N
3:32	76630	N
3:33	76877	N
3:34	77123	N
3:34	77370	N
3:35	77618	N
3:36	77873	N
3:36	78117	N
3:37	78366	N
3:38	78611	N
3:39	78872	N
3:39	79123	N
3:40	79379	N
3:41	79630	N
3:41	79891	N
3:42	80150	N
3:43	80409	N
3:44	80672	N
3:44	80930	N
3:45	81184	N
3:46	81438	N
3:46	81701	N
3:47	81954	N
3:48	82213	N
3:49	82462	N
3:49	82719	N
3:50	82969	N
3:51	83220	N
3:51	83474	N
3:52	83731	N
3:53	83978	N
3:53	84227	N
3:54	84475	N
3:55	84732	N
3:56	84982	N
3:56	85236	N
3:57	85480	N
3:58	85736	N
3:58	85990	N
3:59	86243	N
4:00	86502	N
4:00	86759	N
4:01	87012	N
4:02	87260	N
4:03	87520	N
4:03	87779	N
4:04	88036	N
4:05	88287	N
4:05	88546	N
4:06	88802	N
4:07	89059	N
4:08	89318	N
4:08	89582	N
4:09	89842	N
4:10	90105	N
4:11	90370	N
4:11	90639	N
4:12	90900	N
4:13	91167	N
4:13	91428	N
4:14	91693	N
4:15	91953	N
4:16	92212	N
4:16	92473	N
4:17	92737	N
4:18	92996	N
4:19	93252	N
4:19	93519	N
4:20	93784	N
4:21	94049	N
4:21	94311	N
4:22	94584	N
4:23	94847	N
4:24	95117	N
4:24	95389	N
4:25	95664	N
4:26	95929	N
4:27	96195	N
4:27	96465	N
4:28	96727	N
4:29	96992	N
4:30	97247	N
4:30	97506	N
4:31	97762	N
4:32	98026	N
4:33	98285	N
4:33	98547	N
4:34	98800	N
4:35	99056	N
4:35	99310	N
4:36	99578	N
4:37	99833	N
4:38	100087	N
4:38	100339	N
4:39	100597	N
4:40	100849	N
4:40	101098	N
4:41	101353	N
4:42	101604	N
4:42	101857	N
4:43	102117	N
4:44	102392	N
4:45	102672	N
4:46	102967	N
4:46	103257	N
4:47	103552	N
4:48	103834	N
4:49	104122	N
4:50	104406	N
4:50	104686	N
4:51	104956	N
4:52	105223	N
4:53	105502	N
4:53	105775	N
4:54	106047	N
4:55	106310	N
4:56	106590	N
4:56	106867	N
4:57	107144	N
4:58	107425	N
4:59	107702	N
4:59	107973	N
5:00	108246	N
5:01	108519	N
5:02	108779	N
5:02	109046	N
5:03	109306	N
5:04	109573	N
5:05	109839	N
5:05	110111	N
5:06	110387	N
5:07	110664	N
5:08	110937	N
5:08	111205	N
5:09	111488	N
5:10	111763	N
5:11	112031	N
5:11	112292	N
5:12	112560	N
5:13	112826	N
5:14	113090	N
5:14	113358	N
5:15	113613	N
5:16	113870	N
5:17	114125	N
5:17	114393	N
5:18	114645	N
5:19	114897	N
5:19	115145	N
5:20	115403	N
5:21	115650	N
5:21	115904	N
5:22	116150	N
5:23	116402	N
5:24	116647	N
5:24	116894	N
5:25	117140	N
5:26	117383	N
5:26	117623	N
5:27	117869	N
5:28	118105	N
5:28	118350	N
5:29	118584	N
5:30	118821	N
5:30	119067	N
5:31	119315	N
5:32	119553	N
5:32	119795	N
5:33	120030	N
5:34	120287	N
5:34	120535	N
5:35	120785	N
5:36	121029	N
5:36	121285	N
5:37	121537	N
5:38	121792	N
5:39	122051	N
5:39	122312	N
5:40	122570	N
5:41	122827	N
5:41	123092	N
5:42	123351	N
5:43	123615	N
5:44	123870	N
5:44	124134	N
5:45	124401	N
5:46	124669	N
5:47	124937	N
5:47	125204	N
5:48	125465	N
5:49	125730	N
5:49	125998	N
5:50	126265	N
5:51	126530	N
5:52	126790	N
5:52	127061	N
5:53	127323	N
5:54	127581	N
5:55	127848	N
5:55	128119	N
5:56	128381	N
5:57	128640	N
5:58	128906	N
5:58	129176	N
5:59	129435	N
6:00	129693	N
6:00	129951	N
6:01	130210	N
6:02	130464	N
6:03	130722	N
6:03	130982	N
6:04	131239	N
6:05	131494	N
6:05	131744	N
6:06	132004	N
6:07	132258	N
6:08	132513	N
6:08	132758	N
6:09	133009	N
6:10	133260	N
6:10	133508	N
6:11	133754	N
6:12	134007	N
6:12	134245	N
6:13	134489	N
6:14	134728	N
6:14	134978	N
6:15	135209	N
6:16	135444	N
6:16	135673	N
6:17	135918	N
6:18	136146	N
6:18	136383	N
6:19	136610	N
6:20	136843	N
6:20	137044	|
6:20	137085	N
6:21	137246	|
6:21	137319	N
6:22	137548	N
6:22	137778	N
6:23	138013	N
6:24	138242	N
6:24	138473	N
6:25	138693	N
6:25	138923	N
6:26	139152	N
6:27	139373	N
6:27	139595	N
6:28	139823	N
6:29	140058	N
6:29	140287	N
6:30	140505	N
6:30	140728	N
6:31	140962	N
6:32	141195	N
6:32	141425	N
6:33	141642	N
6:34	141873	N
6:34	142101	N
6:35	142335	N
6:36	142567	N
6:36	142802	N
6:37	143037	N
6:37	143262	N
6:38	143491	N
6:39	143730	N
6:39	143971	N
6:40	144205	N
6:41	144444	N
6:41	144666	N
6:42	144908	N
6:43	145144	N
6:43	145379	N
6:44	145617	N
6:45	145861	N
6:45	146102	N
6:46	146333	N
6:47	146575	N
6:47	146819	N
6:48	147064	N
6:49	147306	N
6:49	147536	N
6:50	147771	N
6:51	148016	N
6:51	148252	N
6:52	148494	N
6:53	148739	N
6:53	148985	N
6:54	149214	N
6:55	149461	N
6:55	149706	N
6:56	149957	N
6:57	150198	N
6:57	150439	N
6:58	150685	N
6:59	150934	N
6:59	151179	N
7:00	151434	N
7:01	151684	N
7:02	151938	N
7:02	152185	N
7:03	152432	N
7:04	152682	N
7:04	152935	N
7:05	153180	N
7:06	153425	N
7:06	153669	N
7:07	153920	N
7:08	154166	N
7:08	154412	N
7:09	154668	N
7:10	154926	N
7:11	155181	N
7:11	155433	N
7:12	155696	N
7:13	155955	N
7:13	156221	N
7:14	156479	N
7:15	156748	N
7:16	157003	N
7:16	157269	N
7:17	157540	N
7:18	157811	N
7:19	158078	N
7:19	158345	N
7:20	158622	N
7:21	158894	N
7:22	159168	N
7:22	159429	N
7:23	159703	N
7:24	159974	N
7:25	160246	N
7:25	160517	N
7:26	160784	N
7:27	161047	N
7:28	161308	N
7:28	161582	N
7:29	161850	N
7:30	162112	N
7:31	162366	N
7:31	162633	N
7:32	162893	N
7:33	163153	N
7:33	163417	N
7:34	163675	N
7:35	163928	N
7:36	164184	N
7:36	164441	N
7:37	164699	N
7:38	164951	N
7:38	165195	N
7:39	165441	N
7:40	165688	N
7:40	165939	N
7:41	166191	N
7:42	166445	N
7:43	166699	N
7:43	166948	N
7:44	167210	N
7:45	167486	N
7:46	167767	N
7:46	168047	N
7:47	168319	N
7:48	168604	N
7:49	168881	N
7:49	169159	N
7:50	169439	N
7:51	169718	N
7:52	169990	N
7:52	170263	N
7:53	170546	N
7:54	170821	N
7:55	171097	N
7:56	171371	N
7:56	171643	N
7:57	171919	N
7:58	172195	N
7:59	172469	N
7:59	172732	N
8:00	173001	N
8:01	173268	N
8:02	173542	N
8:02	173806	N
8:03	174064	N
8:04	174329	N
8:04	174593	N
8:05	174858	N
8:06	175122	N
8:07	175391	N
8:07	175648	N
8:08	175911	N
8:09	176176	N
8:10	176447	N
8:10	176709	N
8:11	176969	N
8:12	177228	N
8:13	177491	N
8:13	177751	N
8:14	178014	N
8:15	178276	N
8:15	178531	N
8:16	178791	N
8:17	179049	N
8:18	179315	N
8:18	179573	N
8:19	179830	N
8:20	180075	N
8:20	180335	N
8:21	180588	N
8:22	180842	N
8:23	181093	N
8:23	181342	N
8:24	181592	N
8:25	181839	N
8:25	182089	N
8:26	182347	N
8:27	182597	N
8:27	182840	N
8:28	183093	N
8:29	183352	N
8:30	183605	N
8:30	183855	N
8:31	184111	N
8:32	184369	N
8:32	184622	N
8:33	184880	N
8:34	185135	N
8:34	185393	N
8:35	185653	N
8:36	185915	N
8:37	186172	N
8:37	186433	N
8:38	186692	N
8:39	186954	N
8:40	187222	N
8:40	187490	N
8:41	187759	N
8:42	188024	N
8:43	188309	N
8:43	188581	N
8:44	188859	N
8:45	189134	N
8:46	189421	N
8:46	189700	N
8:47	189989	N
8:48	190285	N
8:49	190566	N
8:50	190842	N
8:50	191125	N
8:51	191408	N
8:52	191695	N
8:53	191970	N
8:54	192249	N
8:54	192525	N
8:55	192807	N
8:56	193096	N
8:57	193387	N
8:57	193669	N
8:58	193945	N
8:59	194235	N
9:00	194514	N
9:01	194792	N
9:01	195066	N
9:02	195344	N
9:03	195611	N
9:04	195882	N
9:04	196162	N
9:05	196431	N
9:06	196697	N
9:07	196961	N
9:07	197234	N
9:08	197504	N
9:09	197776	N
9:10	198053	N
9:10	198329	N
9:11	198608	N
9:12	198892	N
9:13	199175	N
9:14	199455	N
9:14	199735	N
9:15	200014	N
9:16	200291	N
9:17	200575	N
9:17	200848	N
9:18	201123	N
9:19	201393	N
9:20	201662	N
9:20	201942	N
9:21	202222	N
9:22	202489	N
9:23	202754	N
9:23	203035	N
9:24	203307	N
9:25	203581	N
9:26	203852	N
9:27	204123	N
9:27	204392	N
9:28	204670	N
9:29	204954	N
9:30	205227	N
9:30	205499	N
9:31	205780	N
9:32	206062	N
9:33	206338	N
9:33	206613	N
9:34	206890	N
9:35	207166	N
9:36	207438	N
9:36	207710	N
9:37	207991	N
9:38	208265	N
9:39	208536	N
9:40	208814	N
9:40	209092	N
9:41	209378	N
9:42	209666	N
9:43	209964	N
9:44	210251	N
9:44	210542	N
9:45	210837	N
9:46	211120	N
9:47	211408	N
9:48	211693	N
9:48	211975	N
9:49	212247	N
9:50	212520	N
9:51	212797	N
9:51	213066	N
9:52	213334	N
9:53	213608	N
9:54	213888	N
9:54	214157	N
9:55	214425	N
9:56	214703	N
9:57	214980	N
9:57	215258	N
9:58	215522	N
9:59	215806	N
10:00	216080	N
10:00	216349	N
10:01	216622	N
10:02	216898	N
10:03	217165	N
10:03	217424	N
10:04	217704	N
10:05	217977	N
10:06	218249	N
10:06	218507	N
10:07	218776	N
10:08	219039	N
10:09	219304	N
10:09	219570	N
10:10	219835	N
10:11	220098	N
10:12	220353	N
10:12	220612	N
10:13	220871	N
10:14	221128	N
10:14	221376	N
10:15	221624	N
10:16	221870	N
10:17	222120	N
10:17	222368	N
10:18	222620	N
10:19	222869	N
10:19	223108	N
10:20	223355	N
10:21	223606	N
10:21	223857	N
10:22	224102	N
10:23	224337	N
10:23	224583	N
10:24	224828	N
10:25	225068	N
10:25	225311	N
10:26	225547	N
10:27	225793	N
10:27	226032	N
10:28	226277	N
10:29	226525	N
10:29	226778	N
10:30	227027	N
10:31	227282	N
10:32	227531	N
10:32	227789	N
10:33	228045	N
10:34	228304	N
10:34	228567	N
10:35	228826	N
10:36	229078	N
10:37	229331	N
10:37	229592	N
10:38	229849	N
10:39	230105	N
10:39	230352	N
10:40	230612	N
10:41	230865	N
10:42	231123	N
10:42	231382	N
10:43	231647	N
10:44	231906	N
10:44	232168	N
10:45	232433	N
10:46	232699	N
10:47	232962	N
10:47	233230	N
10:48	233498	N
10:49	233763	N
10:50	234028	N
10:50	234292	N
10:51	234560	N
10:52	234831	N
10:53	235109	N
10:53	235377	N
10:54	235657	N
10:55	235933	N
10:56	236198	N
10:56	236468	N
10:57	236738	N
10:58	237006	N
10:59	237277	N
10:59	237552	N
11:00	237813	N
11:01	238081	N
11:02	238353	N
11:02	238620	N
11:03	238878	N
11:04	239138	N
11:05	239400	N
11:05	239659	N
11:06	239916	N
11:07	240180	N
11:07	240443	N
11:08	240705	N
11:09	240968	N
11:10	241225	N
11:10	241494	N
11:11	241752	N
11:12	242012	N
11:12	242263	N
11:13	242522	N
11:14	242781	N
11:15	243037	N
11:15	243300	N
11:16	243564	N
11:17	243824	N
11:18	244080	N
11:18	244350	N
11:19	244612	N
11:20	244872	N
11:20	245125	N
11:21	245388	N
11:22	245644	N
11:23	245901	N
11:23	246155	N
11:24	246408	N
11:25	246654	N
11:25	246902	N
11:26	247146	N
11:27	247385	N
11:27	247627	N
11:28	247867	N
11:29	248094	N
11:29	248328	N
11:30	248559	N
11:31	248793	N
11:31	249026	N
11:32	249269	N
11:33	249498	N
11:33	249730	N
11:34	249963	N
11:35	250211	N
11:35	250448	N
11:36	250689	N
11:36	250916	N
11:37	251164	N
11:38	251405	N
11:39	251645	N
11:39	251887	N
11:40	252135	N
11:41	252372	N
11:41	252618	N
11:42	252860	N
11:43	253111	N
11:43	253355	N
11:44	253599	N
11:45	253842	N
11:45	254092	N
11:46	254339	N
11:47	254590	N
11:47	254840	N
11:48	255096	N
11:49	255345	N
11:50	255601	N
11:50	255850	N
11:51	256108	N
11:52	256358	N
11:52	256612	N
11:53	256855	N
11:54	257115	N
11:54	257369	N
11:55	257622	N
11:56	257879	N
11:57	258142	N
11:57	258400	N
11:58	258657	N
11:59	258920	N
11:59	259187	N
12:00	259447	N
12:01	259705	N
12:02	259967	N
12:02	260226	N
12:03	260487	N
12:04	260747	N
12:05	261009	N
12:05	261270	N
12:06	261532	N
12:07	261790	N
12:07	262052	N
12:08	262306	N
12:09	262568	N
12:10	262819	N
12:10	263081	N
12:11	263339	N
12:12	263595	N
12:12	263852	N
12:13	264119	N
12:14	264378	N
12:15	264634	N
12:15	264897	N
12:16	265162	N
12:17	265426	N
12:18	265691	N
12:18	265963	N
12:19	266229	N
12:20	266493	N
12:21	266765	N
12:21	267040	N
12:22	267306	N
12:23	267574	N
12:24	267849	N
12:24	268126	N
12:25	268400	N
12:26	268672	N
12:27	268945	N
12:27	269218	N
12:28	269496	N
12:29	269773	N
12:30	270062	N
12:30	270339	N
12:31	270615	N
12:32	270898	N
12:33	271181	N
12:34	271460	N
12:34	271731	N
12:35	272013	N
12:36	272284	N
12:37	272560	N
12:37	272843	N
12:38	273120	N
12:39	273396	N
12:40	273681	N
12:41	273987	N
12:41	274281	N
12:42	274568	N
12:43	274857	N
12:44	275146	N
12:45	275437	N
12:45	275720	N
12:46	276002	N
12:47	276283	N
12:48	276560	N
12:49	276845	N
12:49	277115	N
12:50	277386	N
12:51	277650	N
12:52	277921	N
12:52	278188	N
12:53	278451	N
12:54	278721	N
12:54	278999	N
12:55	279273	N
12:56	279548	N
12:57	279832	N
12:58	280108	N
12:58	280390	N
12:59	280661	N
13:00	280938	N
13:01	281220	N
13:01	281505	N
13:02	281787	N
13:03	282060	N
13:04	282334	N
13:05	282609	N
13:05	282888	N
13:06	283159	N
13:07	283425	N
13:08	283696	N
13:08	283969	N
13:09	284242	N
13:10	284511	N
13:11	284780	N
13:11	285045	N
13:12	285310	N
13:13	285580	N
13:14	285853	N
13:14	286114	N
13:15	286376	N
13:16	286651	N
13:16	286917	N
13:17	287185	N
13:18	287457	N
13:19	287731	N
13:19	287997	N
13:20	288272	N
13:21	288548	N
13:22	288815	N
13:23	289089	N
13:23	289351	N
13:24	289624	N
13:25	289888	N
13:25	290154	N
13:26	290422	N
13:27	290706	N
13:28	290982	N
13:29	291255	N
13:29	291536	N
13:30	291803	N
13:31	292078	N
13:32	292343	N
13:32	292619	N
13:33	292885	N
13:34	293148	N
13:35	293414	N
13:35	293682	N
13:36	293945	N
13:37	294212	N
13:38	294492	N
13:38	294758	N
13:39	295036	N
13:40	295318	N
13:41	295606	N
13:41	295888	N
13:42	296170	N
13:43	296461	N
13:44	296746	N
13:45	297037	N
13:45	297324	N
13:46	297603	N
13:47	297884	N
13:48	298155	N
13:48	298438	N
13:49	298707	N
13:50	298968	N
13:51	299237	N
13:51	299507	N
13:52	299772	N
13:53	300029	N
13:54	300297	N
13:54	300563	N
13:55	300826	N
13:56	301086	N
13:57	301354	N
13:57	301611	N
13:58	301874	N
13:59	302139	N
14:00	302406	N
14:00	302669	N
14:01	302928	N
14:02	303188	N
14:02	303450	N
14:03	303709	N
14:04	303966	N
14:05	304223	N
14:05	304485	N
14:06	304753	N
14:07	305023	N
14:08	305301	N
14:08	305581	N
14:09	305858	N
14:10	306137	N
14:11	306431	N
14:11	306714	N
14:12	307002	N
14:13	307295	N
14:14	307578	N
14:15	307865	N
14:15	308156	N
14:16	308442	N
14:17	308717	N
14:18	308997	N
14:19	309286	N
14:19	309567	N
14:20	309857	N
14:21	310142	N
14:22	310436	N
14:23	310721	N
14:23	311002	N
14:24	311295	N
14:25	311586	N
14:26	311862	N
14:27	312143	N
14:27	312428	N
14:28	312700	N
14:29	312970	N
14:30	313253	N
14:30	313521	N
14:31	313783	N
14:32	314053	N
14:33	314324	N
14:33	314584	N
14:34	314846	N
14:35	315113	N
14:36	315376	N
14:36	315641	N
14:37	315903	N
14:38	316171	N
14:38	316431	N
14:39	316692	N
14:40	316956	N
14:41	317226	N
14:41	317487	N
14:42	317743	N
14:43	318002	N
14:44	318270	N
14:44	318535	N
14:45	318795	N
14:46	319055	N
14:47	319320	N
14:47	319583	N
14:48	319849	N
14:49	320121	N
14:49	320384	N
14:50	320649	N
14:51	320917	N
14:52	321192	N
14:52	321451	N
14:53	321715	N
14:54	321975	N
14:55	322235	N
14:55	322497	N
14:56	322763	N
14:57	323033	N
14:58	323294	N
14:58	323558	N
14:59	323820	N
15:00	324088	N
15:00	324349	N
15:01	324607	N
15:02	324859	N
15:03	325116	N
15:03	325370	N
15:04	325620	N
15:05	325874	N
15:05	326130	N
15:06	326378	N
15:07	326625	N
15:07	326875	N
15:08	327124	N
15:09	327371	N
15:10	327616	N
15:10	327864	N
15:11	328107	N
15:12	328346	N
15:12	328593	N
15:13	328841	N
15:14	329087	N
15:14	329331	N
15:15	329578	N
15:16	329831	N
15:16	330083	N
15:17	330339	N
15:18	330592	N
15:19	330852	N
15:19	331105	N
15:20	331364	N
15:21	331628	N
15:21	331900	N
15:22	332163	N
15:23	332426	N
15:24	332686	N
15:24	332956	N
15:25	333223	N
15:26	333488	N
15:27	333755	N
15:27	334020	N
15:28	334288	N
15:29	334560	N
15:30	334842	N
15:30	335105	N
15:31	335373	N
15:32	335646	N
15:33	335920	N
15:33	336186	N
15:34	336445	N
15:35	336714	N
15:36	336975	N
15:36	337244	N
15:37	337508	N
15:38	337778	N
15:38	338038	N
15:39	338301	N
15:40	338561	N
15:41	338824	N
15:41	339089	N
15:42	339350	N
15:43	339615	N
15:44	339877	N
15:44	340144	N
15:45	340413	N
15:46	340690	N
15:47	340958	N
15:47	341217	N
15:48	341478	N
15:49	341748	N
15:50	342010	N
15:50	342271	N
15:51	342531	N
15:52	342789	N
15:52	343049	N
15:53	343313	N
15:54	343580	N
15:55	343840	N
15:55	344108	N
15:56	344375	N
15:57	344655	N
15:58	344927	N
15:58	345200	N
15:59	345469	N
16:00	345744	N
16:01	346017	N
16:01	346298	N
16:02	346577	N
16:03	346853	N
16:04	347129	N
16:05	347407	N
16:05	347696	N
16:06	347975	N
16:07	348249	N
16:08	348524	N
16:08	348798	N
16:09	349063	N
16:10	349336	N
16:11	349614	N
16:11	349888	N
16:12	350170	N
16:13	350452	N
16:14	350731	N
16:14	350997	N
16:15	351265	N
16:16	351530	N
16:17	351795	N
16:17	352059	N
16:18	352320	N
16:19	352589	N
16:20	352849	N
16:20	353112	N
16:21	353369	N
16:22	353636	N
16:23	353892	N
16:23	354147	N
16:24	354400	N
16:25	354659	N
16:25	354909	N
16:26	355161	N
16:27	355417	N
16:27	355674	N
16:28	355923	N
16:29	356175	N
16:30	356433	N
16:30	356688	N
16:31	356944	N
16:32	357196	N
16:32	357458	N
16:33	357716	N
16:34	357981	N
16:35	358248	N
16:35	358521	N
16:36	358795	N
16:37	359073	N
16:38	359360	N
16:39	359648	N
16:39	359949	N
16:40	360227	N
16:41	360519	N
16:42	360808	N
16:43	361094	N
16:43	361382	N
16:44	361659	N
16:45	361940	N
16:46	362229	N
16:47	362522	N
16:47	362803	N
16:48	363079	N
16:49	363364	N
16:50	363645	N
16:50	363926	N
16:51	364207	N
16:52	364480	N
16:53	364762	N
16:54	365043	N
16:54	365338	N
16:55	365630	N
16:56	365915	N
16:57	366198	N
16:58	366483	N
16:58	366765	N
16:59	367040	N
17:00	367324	N
17:01	367598	N
17:01	367872	N
17:02	368145	N
17:03	368418	N
17:04	368688	N
17:04	368955	N
17:05	369233	N
17:06	369504	N
17:07	369763	N
17:07	370035	N
17:08	370305	N
17:09	370566	N
17:10	370828	N
17:10	371087	N
17:11	371348	N
17:12	371605	N
17:12	371860	N
17:13	372121	N
17:14	372372	N
17:15	372620	N
17:15	372877	N
17:16	373130	N
17:17	373381	N
17:17	373632	N
17:18	373877	N
17:19	374130	N
17:19	374378	N
17:20	374630	N
17:21	374875	N
17:22	375132	N
17:22	375383	N
17:23	375632	N
17:24	375886	N
17:24	376148	N
17:25	376403	N
17:26	376659	N
17:26	376919	N
17:27	377179	N
17:28	377435	N
17:29	377694	N
17:29	377960	N
17:30	378222	N
17:31	378480	N
17:32	378747	N
17:32	379021	N
17:33	379286	N
17:34	379552	N
17:35	379813	N
17:35	380084	N
17:36	380351	N
17:37	380621	N
17:38	380886	N
17:38	381146	N
17:39	381410	N
17:40	381673	N
17:40	381946	N
17:41	382207	N
17:42	382468	N
17:43	382729	N
17:43	383003	N
17:44	383268	N
17:45	383529	N
17:46	383789	N
17:46	384053	N
17:47	384318	N
17:48	384584	N
17:49	384853	N
17:49	385117	N
17:50	385385	N
17:51	385651	N
17:52	385925	N
17:52	386186	N
17:53	386455	N
17:54	386719	N
17:54	386989	N
17:55	387258	N
17:56	387524	N
17:57	387797	N
17:57	388069	N
17:58	388338	N
17:59	388601	N
18:00	388869	N
18:00	389136	N
18:01	389398	N
18:02	389656	N
18:03	389919	N
18:03	390174	N
18:04	390430	N
18:05	390690	N
18:05	390956	N
18:06	391210	N
18:07	391465	N
18:08	391726	N
18:08	391989	N
18:09	392250	N
18:10	392508	N
18:11	392762	N
18:11	393016	N
18:12	393269	N
18:13	393523	N
18:13	393779	N
18:14	394030	N
18:15	394277	N
18:15	394528	N
18:16	394788	N
18:17	395045	N
18:18	395303	N
18:18	395548	N
18:19	395814	N
18:20	396070	N
18:20	396332	N
18:21	396602	N
18:22	396876	N
18:23	397143	N
18:23	397413	N
18:24	397696	N
18:25	397971	N
18:26	398246	N
18:26	398518	N
18:27	398802	N
18:28	399077	N
18:29	399357	N
18:30	399642	N
18:30	399919	N
18:31	400198	N
18:32	400467	N
18:33	400751	N
18:33	401029	N
18:34	401308	N
18:35	401581	N
18:36	401854	N
18:37	402131	N
18:37	402407	N
18:38	402693	N
18:39	402970	N
18:40	403239	N
18:40	403521	N
18:41	403806	N
18:42	404097	N
18:43	404387	N
18:44	404687	N
18:44	404985	N
18:45	405287	N
18:46	405595	N
18:47	405881	N
18:48	406162	N
18:49	406449	N
18:49	406729	N
18:50	406999	N
18:51	407263	N
18:52	407536	N
18:52	407801	N
18:53	408071	N
18:54	408341	N
18:55	408607	N
18:55	408872	N
18:56	409134	N
18:57	409404	N
18:57	409677	N
18:58	409945	N
18:59	410206	N
19:00	410480	N
19:00	410754	N
19:01	411028	N
19:02	411312	N
19:03	411597	N
19:04	411874	N
19:04	412148	N
19:05	412429	N
19:06	412703	N
19:07	412975	N
19:07	413244	N
19:08	413513	N
19:09	413779	N
19:10	414051	N
19:10	414324	N
19:11	414593	N
19:12	414861	N
19:13	415127	N
19:13	415400	N
19:14	415666	N
19:15	415936	N
19:16	416204	N
19:16	416474	N
19:17	416747	N
19:18	417029	N
19:19	417317	N
19:20	417603	N
19:20	417882	N
19:21	418169	N
19:22	418462	N
19:23	418747	N
19:23	419020	N
19:24	419308	N
19:25	419592	N
19:26	419878	N
19:27	420165	N
19:27	420452	N
19:28	420740	N
19:29	421025	N
19:30	421311	N
19:31	421597	N
19:31	421880	N
19:32	422160	N
19:33	422440	N
19:34	422724	N
19:35	423005	N
19:35	423294	N
19:36	423587	N
19:37	423877	N
19:38	424188	N
19:39	424485	N
19:39	424771	N
19:40	425055	N
19:41	425347	N
19:42	425639	N
19:43	425933	N
19:43	426232	N
19:44	426514	N
19:45	426792	N
19:46	427097	N
19:47	427403	N
19:48	427709	N
19:48	427998	N
19:49	428289	N
19:50	428576	N
19:51	428857	N
19:52	429140	N
19:52	429422	N
19:53	429706	N
19:54	429988	N
19:55	430274	N
19:56	430560	N
19:56	430832	N
19:57	431116	N
19:58	431396	N
19:59	431682	N
19:59	431963	N
20:00	432247	N
20:01	432527	N
20:02	432805	N
20:03	433083	N
20:03	433354	N
20:04	433624	N
20:05	433886	N
20:05	434148	N
20:06	434410	N
20:07	434674	N
20:08	434938	N
20:08	435199	N
20:09	435454	N
20:10	435710	N
20:11	435970	N
20:11	436227	N
20:12	436482	N
20:13	436734	N
20:13	436991	N
20:14	437249	N
20:15	437505	N
20:15	437756	N
20:16	438020	N
20:17	438276	N
20:18	438536	N
20:18	438793	N
20:19	439066	N
20:20	439325	N
20:21	439594	N
20:21	439855	N
20:22	440127	N
20:23	440395	N
20:24	440667	N
20:24	440938	N
20:25	441202	N
20:26	441473	N
20:27	441737	N
20:27	442010	N
20:28	442278	N
20:29	442548	N
20:30	442814	N
20:30	443078	N
20:31	443346	N
20:32	443612	N
20:33	443890	N
20:33	444157	N
20:34	444426	N
20:35	444694	N
20:36	444971	N
20:36	445241	N
20:37	445508	N
20:38	445789	N
20:39	446065	N
20:39	446339	N
20:40	446621	N
20:41	446913	N
20:42	447196	N
20:42	447477	N
20:43	447777	N
20:44	448064	N
20:45	448358	N
20:46	448650	N
20:47	448947	N
20:47	449238	N
20:48	449529	N
20:49	449832	N
20:50	450127	N
20:51	450425	N
20:52	450725	N
20:52	451009	N
20:53	451288	N
20:54	451562	N
20:55	451839	N
20:55	452110	N
20:56	452383	N
20:57	452665	N
20:58	452940	N
20:58	453204	N
20:59	453474	N
21:00	453745	N
21:01	454013	N
21:01	454278	N
21:02	454540	N
21:03	454798	N
21:04	455059	N
21:04	455324	N
21:05	455589	N
21:06	455845	N
21:06	456108	N
21:07	456371	N
21:08	456642	N
21:09	456907	N
21:09	457174	N
21:10	457443	N
21:11	457718	N
21:12	457991	N
21:12	458270	N
21:13	458552	N
21:14	458831	N
21:15	459100	N
21:16	459367	N
21:16	459642	N
21:17	459914	N
21:18	460178	N
21:19	460446	N
21:19	460715	N
21:20	460979	N
21:21	461253	N
21:22	461530	N
21:22	461793	N
21:23	462068	N
21:24	462349	N
21:25	462632	N
21:25	462919	N
21:26	463201	N
21:27	463482	N
21:28	463748	N
21:28	464021	N
21:29	464293	N
21:30	464563	N
21:31	464826	N
21:31	465089	N
21:32	465356	N
21:33	465619	N
21:34	465879	N
21:34	466137	N
21:35	466404	N
21:36	466662	N
21:36	466919	N
21:37	467179	N
21:38	467448	N
21:39	467707	N
21:39	467968	N
21:40	468229	N
21:41	468498	N
21:42	468761	N
21:42	469021	N
21:43	469282	N
21:44	469538	N
21:44	469799	N
21:45	470062	N
21:46	470329	N
21:47	470586	N
21:47	470850	N
21:48	471113	N
21:49	471383	N
21:50	471642	N
21:50	471907	N
21:51	472162	N
21:52	472425	N
21:53	472683	N
21:53	472941	N
21:54	473206	N
21:55	473468	N
21:55	473724	N
21:56	473978	N
21:57	474244	N
21:58	474505	N
21:58	474768	N
21:59	475023	N
22:00	475286	N
22:00	475544	N
22:01	475807	N
22:02	476074	N
22:03	476346	N
22:03	476605	N
22:04	476868	N
22:05	477135	N
22:06	477402	N
22:06	477667	N
22:07	477928	N
22:08	478191	N
22:09	478454	N
22:09	478718	N
22:10	478980	N
22:11	479247	N
22:11	479507	N
22:12	479766	N
22:13	480023	N
22:14	480296	N
22:14	480557	N
22:15	480815	N
22:16	481070	N
22:17	481328	N
22:17	481584	N
22:18	481839	N
22:19	482099	N
22:19	482352	N
22:20	482599	N
22:21	482851	N
22:21	483109	N
22:22	483360	N
22:23	483609	N
22:24	483850	N
22:24	484101	N
22:25	484346	N
22:26	484595	N
22:26	484839	N
22:27	485083	N
22:28	485327	N
22:28	485569	N
22:29	485807	N
22:30	486049	N
22:30	486286	N
22:31	486531	N
22:32	486762	N
22:32	487003	N
22:33	487235	N
22:34	487477	N
22:34	487715	N
22:35	487959	N
22:36	488198	N
22:36	488426	N
22:37	488663	N
22:38	488908	N
22:38	489147	N
22:39	489379	N
22:40	489606	N
22:40	489842	N
22:41	490078	N
22:41	490309	N
22:42	490543	N
22:43	490774	N
22:43	491019	N
22:44	491252	N
22:45	491493	N
22:45	491731	N
22:46	491978	N
22:47	492215	N
22:47	492461	N
22:48	492696	N
22:49	492943	N
22:49	493188	N
22:50	493435	N
22:51	493683	N
22:52	493939	N
22:52	494190	N
22:53	494448	N
22:54	494705	N
22:54	494967	N
22:55	495229	N
22:56	495488	N
22:57	495756	N
22:57	496018	N
22:58	496282	N
22:59	496549	N
23:00	496823	N
23:00	497086	N
23:01	497351	N
23:02	497618	N
23:03	497885	N
23:03	498154	N
23:04	498421	N
23:05	498691	N
23:05	498956	N
23:06	499233	N
23:07	499510	N
23:08	499789	N
23:09	500061	N
23:09	500337	N
23:10	500622	N
23:11	500898	N
23:12	501171	N
23:12	501436	N
23:13	501711	N
23:14	501978	N
23:15	502236	N
23:15	502500	N
23:16	502768	N
23:17	503028	N
23:18	503285	N
23:18	503547	N
23:19	503809	N
23:20	504068	N
23:20	504323	N
23:21	504589	N
23:22	504842	N
23:23	505099	N
23:23	505363	N
23:24	505625	N
23:25	505881	N
23:25	506134	N
23:26	506385	N
23:27	506642	N
23:28	506893	N
23:28	507149	N
23:29	507401	N
23:30	507664	N
23:30	507923	N
23:31	508187	N
23:32	508457	N
23:33	508732	N
23:33	508998	N
23:34	509261	N
23:35	509535	N
23:36	509801	N
23:36	510067	N
23:37	510325	N
23:38	510594	N
23:39	510854	N
23:39	511118	N
23:40	511386	N
23:41	511655	N
23:42	511920	N
23:42	512192	N
23:43	512473	N
23:44	512746	N
23:45	513024	N
23:45	513292	N
23:46	513567	N
23:47	513835	N
23:48	514106	N
23:48	514380	N
23:49	514650	N
23:50	514921	N
23:51	515187	N
23:51	515465	N
23:52	515730	N
23:53	515998	N
23:54	516259	N
23:54	516536	N
23:55	516807	N
23:56	517075	N
23:57	517348	N
23:57	517622	N
23:58	517890	N
23:59	518156	N
24:00	518434	N
24:00	518704	N
24:01	518980	N
24:02	519258	N
24:03	519533	N
24:03	519812	N
24:04	520097	N
24:05	520382	N
24:06	520662	N
24:07	520934	N
24:07	521198	N
24:08	521471	N
24:09	521736	N
24:09	521998	N
24:10	522254	N
24:11	522514	N
24:12	522762	N
24:12	523017	N
24:13	523274	N
24:14	523526	N
24:14	523768	N
24:15	524014	N
24:16	524266	N
24:16	524512	N
24:17	524754	N
24:18	525001	N
24:19	525251	N
24:19	525499	N
24:20	525746	N
24:21	525996	N
24:21	526253	N
24:22	526504	N
24:23	526757	N
24:23	527006	N
24:24	527265	N
24:25	527515	N
24:26	527776	N
24:26	528026	N
24:27	528293	N
24:28	528553	N
24:28	528816	N
24:29	529080	N
24:30	529350	N
24:31	529614	N
24:31	529877	N
24:32	530146	N
24:33	530416	N
24:34	530682	N
24:34	530942	N
24:35	531217	N
24:36	531476	N
24:37	531740	N
24:37	532009	N
24:38	532278	N
24:39	532542	N
24:40	532808	N
24:40	533079	N
24:41	533345	N
24:42	533616	N
24:43	533880	N
24:43	534154	N
24:44	534416	N
24:45	534680	N
24:45	534947	N
24:46	535220	N
24:47	535489	N
24:48	535751	N
24:48	536026	N
24:49	536301	N
24:50	536583	N
24:51	536853	N
24:52	537134	N
24:52	537409	N
24:53	537681	N
24:54	537960	N
24:55	538229	N
24:55	538497	N
24:56	538764	N
24:57	539035	N
24:58	539300	N
24:58	539570	N
24:59	539837	N
25:00	540095	N
25:01	540361	N
25:01	540627	N
25:02	540894	N
25:03	541148	N
25:03	541407	N
25:04	541664	N
25:05	541928	N
25:06	542188	N
25:06	542445	N
25:07	542699	N
25:08	542958	N
25:08	543220	N
25:09	543479	N
25:10	543743	N
25:11	544008	N
25:11	544271	N
25:12	544529	N
25:13	544800	N
25:14	545060	N
25:14	545320	N
25:15	545574	N
25:16	545836	N
25:16	546090	N
25:17	546345	N
25:18	546603	N
25:19	546868	N
25:19	547121	N
25:20	547380	N
25:21	547640	N
25:21	547898	N
25:22	548158	N
25:23	548413	N
25:24	548669	N
25:24	548921	N
25:25	549171	N
25:26	549427	N
25:26	549682	N
25:27	549937	N
25:28	550192	N
25:29	550446	N
25:29	550710	N
25:30	550978	N
25:31	551243	N
25:31	551503	N
25:32	551770	N
25:33	552038	N
25:34	552310	N
25:34	552599	N
25:35	552880	N
25:36	553156	N
25:37	553439	N
25:38	553729	N
25:38	554004	N
25:39	554289	N
25:40	554567	N
25:41	554850	N
25:42	555133	N
25:42	555418	N
25:43	555704	N
25:44	555978	N
25:45	556255	N
25:45	556531	N
25:46	556815	N
25:47	557093	N
25:48	557364	N
25:49	557649	N
25:49	557933	N
25:50	558221	N
25:51	558502	N
25:52	558780	N
25:52	559065	N
25:53	559357	N
25:54	559673	N
25:55	559979	N
25:56	560280	N
25:57	560590	N
25:57	560878	N
25:58	561169	N
25:59	561465	N
26:00	561753	N
26:01	562034	N
26:01	562315	N
26:02	562604	N
26:03	562894	N
26:04	563190	N
26:05	563485	N
26:06	563780	N
26:06	564076	N
26:07	564369	N
26:08	564658	N
26:09	564939	N
26:10	565213	N
26:10	565497	N
26:11	565770	N
26:12	566049	N
26:13	566322	N
26:13	566594	N
26:14	566855	N
26:15	567121	N
26:16	567392	N
26:16	567654	N
26:17	567914	N
26:18	568172	N
26:19	568443	N
26:19	568705	N
26:20	568971	N
26:21	569225	N
26:21	569484	N
26:22	569746	N
26:23	570010	N
26:24	570275	N
26:24	570537	N
26:25	570802	N
26:26	571070	N
26:27	571342	N
26:27	571604	N
26:28	571866	N
26:29	572120	N
26:29	572385	N
26:30	572642	N
26:31	572896	N
26:32	573158	N
26:32	573421	N
26:33	573677	N
26:34	573930	N
26:34	574190	N
26:35	574447	N
26:36	574700	N
26:37	574949	N
26:37	575203	N
26:38	575449	N
26:39	575694	N
26:39	575943	N
26:40	576192	N
26:41	576435	N
26:41	576678	N
26:42	576919	N
26:43	577169	N
26:43	577413	N
26:44	577661	N
26:45	577899	N
26:45	578144	N
26:46	578389	N
26:47	578634	N
26:47	578879	N
26:48	579129	N
26:49	579380	N
26:50	579633	N
26:50	579888	N
26:51	580155	N
26:52	580413	N
26:52	580670	N
26:53	580929	N
26:54	581193	N
26:55	581447	N
26:55	581701	N
26:56	581962	N
26:57	582222	N
26:57	582476	N
26:58	582732	N
26:59	582989	N
27:00	583243	N
27:00	583498	N
27:01	583748	N
27:02	584002	N
27:02	584245	N
27:03	584495	N
27:04	584742	N
27:04	584994	N
27:05	585240	N
27:06	585484	N
27:07	585729	N
27:07	585983	N
27:08	586230	N
27:09	586478	N
27:09	586713	N
27:10	586969	N
27:11	587216	N
27:11	587465	N
27:12	587714	N
27:13	587968	N
27:13	588216	N
27:14	588464	N
27:15	588713	N
27:16	588970	N
27:16	589216	N
27:17	589468	N
27:18	589714	N
27:18	589968	N
27:19	590212	N
27:20	590458	N
27:20	590709	N
27:21	590962	N
27:22	591212	N
27:22	591464	N
27:23	591715	N
27:24	591976	N
27:25	592233	N
27:25	592489	N
27:26	592738	N
27:27	592991	N
27:27	593243	N
27:28	593492	N
27:29	593746	N
27:29	593999	N
27:30	594244	N
27:31	594489	N
27:32	594742	N
27:32	594994	N
27:33	595242	N
27:34	595484	N
27:34	595732	N
27:35	595981	N
27:36	596224	N
27:36	596472	N
27:37	596724	N
27:38	596971	N
27:38	597215	N
27:39	597465	N
27:40	597716	N
27:41	597968	N
27:41	598219	N
27:42	598465	N
27:43	598718	N
27:43	598970	N
27:44	599226	N
27:45	599486	N
27:45	599750	N
27:46	600014	N
27:47	600272	N
27:48	600532	N
27:48	600802	N
27:49	601061	N
27:50	601319	N
27:51	601570	N
27:51	601829	N
27:52	602079	N
27:53	602329	N
27:53	602583	N
27:54	602840	N
27:55	603087	N
27:55	603341	N
27:56	603600	N
27:57	603860	N
27:58	604121	N
27:58	604378	N
27:59	604639	N
28:00	604896	N
28:00	605153	N
28:01	605409	N
28:02	605668	N
28:03	605923	N
28:03	606183	N
28:04	606438	N
28:05	606706	N
28:06	606968	N
28:06	607233	N
28:07	607498	N
28:08	607776	N
28:09	608043	N
28:09	608315	N
28:10	608599	N
28:11	608870	N
28:12	609139	N
28:12	609408	N
28:13	609682	N
28:14	609946	N
28:15	610209	N
28:15	610473	N
28:16	610731	N
28:17	610993	N
28:17	611272	N
28:18	611572	N
28:19	611872	N
28:20	612170	N
28:21	612475	N
28:22	612772	N
28:22	613063	N
28:23	613345	N
28:24	613636	N
28:25	613929	N
28:26	614207	N
28:26	614494	N
28:27	614778	N
28:28	615059	N
28:29	615344	N
28:30	615625	N
28:30	615908	N
28:31	616179	N
28:32	616455	N
28:33	616722	N
28:33	616991	N
28:34	617265	N
28:35	617536	N
28:36	617798	N
28:36	618059	N
28:37	618332	N
28:38	618594	N
28:39	618860	N
28:39	619111	N
28:40	619375	N
28:41	619635	N
28:41	619894	N
28:42	620159	N
28:43	620415	N
28:44	620673	N
28:44	620926	N
28:45	621189	N
28:46	621450	N
28:46	621713	N
28:47	621959	N
28:48	622222	N
28:49	622475	N
28:49	622730	N
28:50	622985	N
28:51	623242	N
28:51	623491	N
28:52	623740	N
28:53	623996	N
28:54	624254	N
28:54	624502	N
28:55	624755	N
28:56	625007	N
28:56	625264	N
28:57	625522	N
28:58	625789	N
28:59	626057	N
28:59	626324	N
29:00	626591	N
29:01	626861	N
29:02	627142	N
29:02	627410	N
29:03	627680	N
29:04	627947	N
29:05	628218	N
29:05	628486	N
29:06	628754	N
29:07	629027	N
29:08	629298	N
29:08	629564	N
29:09	629830	N
29:10	630100	N
29:11	630361	N
29:11	630623	N
29:12	630878	N
29:13	631143	N
29:13	631397	N
29:14	631649	N
29:15	631908	N
29:16	632166	N
29:16	632414	N
29:17	632668	N
29:18	632922	N
29:18	633180	N
29:19	633434	N
29:20	633686	N
29:20	633942	N
29:21	634193	N
29:22	634446	N
29:23	634702	N
29:23	634959	N
29:24	635211	N
29:25	635460	N
29:25	635703	N
29:26	635960	N
29:27	636209	N
29:27	636458	N
29:28	636697	N
29:29	636948	N
29:29	637197	N
29:30	637448	N
29:31	637700	N
29:32	637961	N
29:32	638210	N
29:33	638460	N
29:34	638712	N
29:34	638975	N
29:35	639226	N
29:36	639482	N
29:37	639726	N
29:37	639977	N
29:38	640226	N
29:39	640475	N
29:39	640724	N
29:40	640971	N
29:41	641214	N
29:41	641459	N
29:42	641705	N
29:43	641958	N
29:43	642205	N
29:44	642451	N
29:45	642697	N
29:45	642952	N
29:46	643205	N
29:47	643458	N
29:48	643715	N
29:48	643977	N
29:49	644235	N
29:50	644492	N
29:50	644759	N
29:51	645018	N
29:52	645273	N
29:53	645527	N
29:53	645790	N
29:54	646046	N
29:55	646301	N
29:55	646555	N
29:56	646818	N
29:57	647071	N
29:58	647329	N
29:58	647587	N
29:59	647849	N
30:00	648102	N
30:01	648360	N
30:01	648609	N
30:02	648870	N
30:03	649126	N
30:03	649383	N
30:04	649643	N
30:05	649905	N
