0:00	70	N
0:01	550	N
0:02	1021	N
0:04	1498	N
0:05	1925	N
0:06	2340	N
0:07	2821	N
0:09	3259	N
0:10	3667	N
0:11	4154	N
0:12	4630	N
0:14	5071	N
0:15	5594	N
0:16	6073	N
0:18	6510	N
0:19	6991	N
0:20	7474	N
0:22	7920	N
0:23	8409	N
0:24	8892	N
0:25	9326	N
0:27	9793	N
0:28	10273	N
0:29	10713	N
0:31	11198	N
0:32	11681	N
0:33	12145	N
0:35	12635	N
0:36	13114	N
0:37	13530	N
0:38	13992	N
0:40	14438	N
0:41	14848	N
0:42	15276	N
0:43	15721	N
0:44	16111	N
0:45	16512	N
0:47	16948	N
0:48	17352	N
0:49	17739	N
0:50	18194	N
0:51	18620	N
0:52	19026	N
0:54	19492	N
0:55	19915	N
0:56	20318	N
0:57	20754	N
0:58	21165	N
0:59	21554	N
1:01	22001	N
1:02	22456	N
1:03	22873	N
1:04	23322	N
1:05	23759	N
1:07	24174	N
1:08	24617	N
1:09	25061	N
1:10	25465	N
1:11	25914	N
1:13	26350	N
1:14	26746	N
1:15	27120	N
1:16	27476	N
1:17	27840	N
1:18	28200	N
1:19	28541	N
1:20	28909	N
1:21	29289	N
1:22	29659	N
1:23	30066	N
1:24	30544	N
1:26	31001	N
1:27	31471	N
1:28	31933	N
1:29	32365	N
1:31	32799	N
1:32	33257	N
1:33	33674	N
1:34	34101	N
1:35	34546	N
1:37	34953	N
1:38	35373	N
1:39	35877	N
1:40	36304	N
1:41	36712	N
1:43	37217	N
1:44	37643	N
1:45	38031	N
1:46	38394	N
1:47	38743	N
1:48	39103	N
1:49	39480	N
1:50	39843	N
1:51	40226	N
1:52	40625	N
1:53	41017	N
1:55	41512	N
1:56	42010	N
1:58	42492	N
1:59	42985	N
2:00	43420	N
2:01	43864	N
2:03	44331	N
2:04	44751	N
2:05	45142	N
2:06	45560	N
2:07	46008	N
2:08	46429	N
2:10	46874	N
2:11	47332	N
2:12	47700	N
2:13	48066	N
2:14	48433	N
2:15	48813	N
2:17	49339	N
2:18	49807	N
2:19	50288	N
2:21	50766	N
2:22	51212	N
2:23	51683	N
2:24	52162	N
2:26	52587	N
2:27	53077	N
2:28	53545	N
2:29	53959	N
2:31	54398	N
2:32	54867	N
2:33	55297	N
2:34	55715	N
2:36	56185	N
2:37	56566	N
2:38	56947	N
2:39	57343	N
2:40	57762	N
2:41	58304	N
2:43	58809	N
2:44	59267	N
2:45	59747	N
2:47	60202	N
2:48	60639	N
2:49	61109	N
2:50	61538	N
2:52	61934	N
2:53	62358	N
2:54	62773	N
2:55	63168	N
2:56	63566	N
2:57	64063	N
2:59	64537	N
3:00	64939	N
3:01	65416	N
3:02	65872	N
3:04	66256	N
3:05	66621	N
3:06	66990	N
3:07	67346	N
3:08	67717	N
3:09	68228	N
3:10	68704	N
3:12	69206	N
3:13	69679	N
3:14	70151	N
3:16	70650	N
3:17	71094	N
3:18	71529	N
3:20	72010	N
3:21	72463	N
3:22	72885	N
3:23	73328	N
3:24	73741	N
3:25	74135	N
3:27	74599	N
3:28	75008	N
3:29	75378	N
3:30	75759	N
3:31	76128	N
3:32	76633	N
3:34	77109	N
3:35	77576	N
3:36	78072	N
3:38	78529	N
3:39	78983	N
3:40	79430	N
3:41	79838	N
3:43	80298	N
3:44	80728	N
3:45	81137	N
3:46	81557	N
3:47	82010	N
3:48	82405	N
3:50	82803	N
3:51	83171	N
3:52	83526	N
3:53	83903	N
3:54	84267	N
3:55	84654	N
3:56	85145	N
3:57	85614	N
3:59	86105	N
4:00	86590	N
4:01	87025	N
4:02	87455	N
4:04	87920	N
4:05	88346	N
4:06	88779	N
4:07	89228	N
4:09	89653	N
4:10	90069	N
4:11	90543	N
4:12	90975	N
4:13	91383	N
4:15	91828	N
4:16	92286	N
4:17	92700	N
4:18	93193	N
4:20	93628	N
4:21	94038	N
4:22	94490	N
4:23	94939	N
4:24	95347	N
4:26	95799	N
4:27	96244	N
4:28	96652	N
4:29	97105	N
4:30	97505	N
4:31	97882	N
4:32	98251	N
4:33	98606	N
4:34	98970	N
4:35	99325	N
4:36	99686	N
4:37	100046	N
4:38	100410	N
4:40	100915	N
4:41	101373	N
4:42	101842	N
4:44	102338	N
4:45	102792	N
4:46	103270	N
4:48	103768	N
4:49	104211	N
4:50	104662	N
4:51	105119	N
4:53	105541	N
4:54	105988	N
4:55	106467	N
4:56	106907	N
4:58	107361	N
4:59	107841	N
5:00	108286	N
5:02	108742	N
5:03	109231	N
5:04	109660	N
5:05	110130	N
5:07	110592	N
5:08	111014	N
5:09	111463	N
5:10	111888	N
5:11	112252	N
5:12	112611	N
5:13	112979	N
5:14	113336	N
5:15	113752	N
5:17	114278	N
5:18	114760	N
5:20	115241	N
5:21	115698	N
5:22	116156	N
5:23	116635	N
5:25	117078	N
5:26	117519	N
5:27	117975	N
5:28	118392	N
5:30	118851	N
5:31	119321	N
5:32	119745	N
5:33	120206	N
5:35	120663	N
5:36	121084	N
5:37	121557	N
5:38	122019	N
5:40	122439	N
5:41	122871	N
5:42	123261	N
5:43	123617	N
5:44	123987	N
5:45	124355	N
5:46	124743	N
5:48	125284	N
5:49	125775	N
5:50	126258	N
5:52	126751	N
5:53	127192	N
5:54	127677	N
5:55	128147	N
5:57	128575	N
5:58	129025	N
5:59	129483	N
6:00	129906	N
6:01	130310	N
6:03	130758	N
6:04	131187	N
6:05	131587	N
6:06	132014	N
6:07	132404	N
6:08	132828	N
6:10	133281	N
6:11	133708	N
6:12	134162	N
6:13	134615	N
6:15	135030	N
6:16	135469	N
6:17	135874	N
6:18	136300	N
6:19	136752	N
6:21	137170	N
6:22	137588	N
6:23	138011	N
6:24	138374	N
6:25	138729	N
6:26	139095	N
6:27	139455	N
6:28	139837	N
6:29	140317	N
6:31	140794	N
6:32	141233	N
6:33	141736	N
6:34	142189	N
6:36	142655	N
6:37	143113	N
6:38	143527	N
6:39	143973	N
6:41	144416	N
6:42	144823	N
6:43	145275	N
6:44	145720	N
6:45	146103	N
6:47	146532	N
6:48	146972	N
6:49	147373	N
6:50	147759	N
6:51	148158	N
6:52	148509	N
6:53	148866	N
6:54	149231	N
6:55	149594	N
6:56	149992	N
6:57	150457	N
6:59	150908	N
7:00	151367	N
7:01	151850	N
7:03	152283	N
7:03	152471	V
7:04	152737	N
7:05	153138	N
7:06	153555	N
7:07	153965	N
7:08	154396	N
7:09	154792	N
7:11	155193	N
7:12	155623	N
7:13	156034	N
7:14	156442	N
7:15	156870	N
7:16	157233	N
7:17	157598	N
7:18	157963	N
7:19	158317	N
7:20	158693	N
7:22	159137	N
7:23	159589	N
7:24	160009	N
7:25	160447	N
7:26	160866	N
7:28	161296	N
7:29	161666	N
7:30	162030	N
7:31	162396	N
7:32	162740	N
7:32	163073	N
7:33	163424	N
7:35	163815	N
7:36	164194	N
7:37	164563	N
7:38	164964	N
7:39	165391	N
7:40	165878	N
7:42	166333	N
7:43	166814	N
7:44	167277	N
7:45	167719	N
7:47	168191	N
7:48	168630	N
7:49	169051	N
7:50	169498	N
7:51	169907	N
7:52	170278	N
7:54	170641	N
7:54	170986	N
7:55	171336	N
7:56	171705	N
7:58	172120	N
7:59	172536	N
8:00	172985	N
8:01	173435	N
8:02	173852	N
8:04	174283	N
8:05	174697	N
8:06	175073	N
8:07	175445	N
8:08	175800	N
8:09	176148	N
8:10	176497	N
8:11	176841	N
8:12	177187	N
8:13	177562	N
8:14	178035	N
8:15	178513	N
8:17	179014	N
8:18	179487	N
8:19	179928	N
8:21	180401	N
8:22	180906	N
8:23	181337	N
8:25	181812	N
8:26	182299	N
8:27	182719	N
8:28	183169	N
8:30	183627	N
8:31	184039	N
8:32	184446	N
8:33	184821	N
8:34	185194	N
8:35	185564	N
8:36	185937	N
8:37	186348	N
8:39	186842	N
8:40	187324	N
8:41	187809	N
8:42	188264	N
8:44	188712	N
8:45	189183	N
8:46	189641	N
8:47	190074	N
8:49	190538	N
8:50	190956	N
8:51	191378	N
8:52	191820	N
8:53	192226	N
8:55	192651	N
8:56	193091	N
8:57	193499	N
8:58	193893	N
8:59	194254	N
9:00	194611	N
9:01	194973	N
9:02	195319	N
9:03	195683	N
9:04	196085	N
9:05	196506	N
9:07	197032	N
9:08	197510	N
9:09	197947	N
9:10	198339	N
9:11	198715	N
9:13	199081	N
9:13	199432	N
9:14	199775	N
9:15	200107	N
9:16	200457	N
9:17	200800	N
9:18	201139	N
9:19	201493	N
9:20	201866	N
9:21	202247	N
9:22	202644	N
9:23	203020	N
9:25	203409	N
9:26	203829	N
9:27	204287	N
9:28	204753	N
9:30	205255	N
9:31	205709	N
9:32	206174	N
9:34	206669	N
9:35	207111	N
9:36	207531	N
9:37	207967	N
9:38	208348	N
9:39	208716	N
9:40	209092	N
9:41	209466	N
9:43	209927	N
9:44	210472	N
9:46	210990	N
9:47	211507	N
9:48	211980	N
9:50	212455	N
9:51	212953	N
9:52	213397	N
9:54	213854	N
9:55	214282	N
9:56	214701	N
9:57	215152	N
9:58	215566	N
9:59	215933	N
10:00	216307	N
10:01	216697	N
10:03	217138	N
10:04	217658	N
10:05	218128	N
10:07	218626	N
10:08	219079	N
10:09	219522	N
10:11	219998	N
10:12	220449	N
10:13	220852	N
10:14	221241	N
10:15	221606	N
10:16	221972	N
10:17	222358	N
10:19	222859	N
10:20	223319	N
10:21	223801	N
10:23	224284	N
10:24	224733	N
10:25	225180	N
10:26	225596	N
10:27	226050	N
10:29	226511	N
10:30	226939	N
10:31	227396	N
10:32	227847	N
10:34	228273	N
10:35	228708	N
10:36	229137	N
10:37	229556	N
10:38	230008	N
10:40	230424	N
10:41	230837	N
10:42	231312	N
10:43	231720	N
10:44	232148	N
10:46	232614	N
10:47	233029	N
10:48	233456	N
10:49	233904	N
10:50	234337	N
10:52	234752	N
10:53	235214	N
10:54	235653	N
10:55	236059	N
10:56	236504	N
10:58	236952	N
10:59	237357	N
11:00	237812	N
11:01	238261	N
11:02	238668	N
11:04	239100	N
11:05	239545	N
11:06	239956	N
11:07	240377	N
11:08	240762	N
11:09	241138	N
11:10	241494	N
11:11	241848	N
11:12	242195	N
11:13	242556	N
11:14	242936	N
11:16	243430	N
11:17	243919	N
11:18	244408	N
11:20	244845	N
11:21	245286	N
11:22	245764	N
11:23	246198	N
11:25	246636	N
11:26	247106	N
11:27	247529	N
11:28	247996	N
11:30	248485	N
11:31	248894	N
11:32	249356	N
11:33	249824	N
11:35	250243	N
11:36	250700	N
11:37	251190	N
11:38	251614	N
11:40	252075	N
11:41	252515	N
11:42	252936	N
11:43	253381	N
11:45	253815	N
11:46	254221	N
11:47	254666	N
11:48	255107	N
11:49	255516	N
11:51	255979	N
11:52	256430	N
11:53	256840	N
11:54	257272	N
11:55	257737	N
11:57	258155	N
11:58	258619	N
11:59	259060	N
12:00	259468	N
12:02	259921	N
12:03	260338	N
12:04	260738	N
12:05	261168	N
12:06	261570	N
12:07	261958	N
12:08	262382	N
12:09	262795	N
12:11	263203	N
12:12	263641	N
12:13	264076	N
12:14	264482	N
12:15	264947	N
12:17	265398	N
12:18	265822	N
12:19	266296	N
12:20	266756	N
12:22	267167	N
12:23	267617	N
12:24	268047	N
12:25	268452	N
12:26	268891	N
12:28	269323	N
12:29	269725	N
12:30	270166	N
12:31	270651	N
12:32	271067	N
12:34	271508	N
12:35	271962	N
12:36	272392	N
12:37	272792	N
12:39	273249	N
12:40	273674	N
12:41	274027	N
12:42	274394	N
12:43	274737	N
12:44	275076	N
12:45	275427	N
12:46	275785	N
12:47	276263	N
12:48	276648	N
12:49	277034	N
12:50	277431	N
12:51	277879	N
12:53	278336	N
12:54	278764	N
12:55	279217	N
12:56	279655	N
12:58	280080	N
12:59	280521	N
13:00	280983	N
13:01	281401	N
13:03	281890	N
13:04	282385	N
13:05	282839	N
13:07	283328	N
13:08	283801	N
13:09	284263	N
13:10	284738	N
13:12	285201	N
13:13	285662	N
13:14	286101	N
13:16	286573	N
13:17	287011	N
13:18	287482	N
13:19	287949	N
13:21	288381	N
13:22	288813	N
13:23	289274	N
13:24	289682	N
13:25	290083	N
13:26	290473	N
13:27	290822	N
13:28	291178	N
13:29	291529	N
13:30	291872	N
13:31	292249	N
13:33	292781	N
13:34	293283	N
13:36	293795	N
13:37	294273	N
13:38	294718	N
13:39	295183	N
13:41	295632	N
13:42	296070	N
13:43	296526	N
13:44	296955	N
13:46	297382	N
13:47	297867	N
13:48	298299	N
13:49	298779	N
13:51	299257	N
13:52	299709	N
13:53	300156	N
13:55	300625	N
13:56	301050	N
13:57	301522	N
13:58	301974	N
13:59	302386	N
14:01	302827	N
14:02	303275	N
14:03	303675	N
14:04	304112	N
14:05	304551	N
14:07	304965	N
14:08	305432	N
14:09	305894	N
14:10	306331	N
14:12	306785	N
14:13	307255	N
14:14	307676	N
14:15	308113	N
14:17	308545	N
14:18	308955	N
14:19	309354	N
14:20	309804	N
14:21	310266	N
14:23	310684	N
14:24	311059	N
14:25	311413	N
14:26	311772	N
14:27	312149	N
14:28	312592	N
14:29	313002	N
14:30	313471	N
14:32	313945	N
14:33	314339	N
14:34	314756	N
14:35	315174	N
14:36	315564	N
14:37	315976	N
14:38	316400	N
14:40	316801	N
14:41	317252	N
14:42	317691	N
14:43	318093	N
14:44	318558	N
14:46	319014	N
14:47	319431	N
14:48	319881	N
14:49	320332	N
14:50	320743	N
14:52	321208	N
14:53	321648	N
14:54	322077	N
14:55	322530	N
14:57	322974	N
14:58	323398	N
14:59	323893	N
15:00	324343	N
15:02	324813	N
15:03	325283	N
15:04	325722	N
15:05	326150	N
15:07	326645	N
15:08	327095	N
15:09	327507	N
15:11	327984	N
15:12	328447	N
15:13	328867	N
15:14	329320	N
15:15	329756	N
15:17	330146	N
15:18	330578	N
15:19	331005	N
15:20	331413	N
15:21	331869	N
15:23	332312	N
15:24	332734	N
15:25	333201	N
15:26	333623	N
15:27	334026	N
15:29	334469	N
15:30	334896	N
15:31	335301	N
15:32	335759	N
15:33	336212	N
15:35	336625	N
15:36	337096	N
15:37	337568	N
15:38	338001	N
15:40	338463	N
15:41	338929	N
15:42	339351	N
15:43	339822	N
15:45	340275	N
15:46	340679	N
15:47	341115	N
15:48	341587	N
15:50	342005	N
15:51	342415	N
15:52	342857	N
15:53	343278	N
15:54	343684	N
15:55	344142	N
15:57	344591	N
15:58	344993	N
15:59	345450	N
16:00	345886	N
16:01	346285	N
16:03	346694	N
16:04	347115	N
16:05	347500	N
16:06	347883	N
16:07	348304	N
16:08	348727	N
16:09	349119	N
16:11	349566	N
16:12	350024	N
16:13	350439	N
16:14	350898	N
16:16	351365	N
16:17	351784	N
16:18	352246	N
16:19	352717	N
16:20	353126	N
16:22	353581	N
16:23	354038	N
16:24	354434	N
16:25	354855	N
16:26	355302	N
16:28	355708	N
16:29	356152	N
16:30	356624	N
16:31	357037	N
16:32	357467	N
16:34	357909	N
16:35	358351	N
16:36	358769	N
16:37	359228	N
16:39	359678	N
16:40	360095	N
16:41	360553	N
16:42	361011	N
16:43	361414	N
16:45	361836	N
16:46	362264	N
16:47	362665	N
16:48	363075	N
16:49	363509	N
16:50	363928	N
16:51	364319	N
16:53	364728	N
16:54	365146	N
16:55	365540	N
16:56	365986	N
16:57	366463	N
16:59	366908	N
17:00	367358	N
17:01	367808	N
17:02	368215	N
17:04	368655	N
17:05	369095	N
17:06	369508	N
17:07	369914	N
17:08	370339	N
17:09	370766	N
17:11	371169	N
17:12	371617	N
17:13	372050	N
17:14	372464	N
17:15	372925	N
17:17	373363	N
17:18	373766	N
17:19	374194	N
17:20	374627	N
17:21	375046	N
17:23	375506	N
17:24	375973	N
17:25	376396	N
17:26	376824	N
17:27	377237	N
17:28	377586	N
17:29	377950	N
17:30	378297	N
17:31	378621	N
17:32	378960	N
17:33	379297	N
17:34	379686	N
17:35	380085	N
17:37	380601	N
17:38	381094	N
17:39	381558	N
17:41	382052	N
17:42	382538	N
17:43	383007	N
17:45	383496	N
17:46	383941	N
17:47	384386	N
17:48	384830	N
17:50	385227	N
17:51	385646	N
17:52	386074	N
17:53	386474	N
17:54	386897	N
17:55	387319	N
17:56	387718	N
17:58	388187	N
17:59	388615	N
18:00	389028	N
18:01	389487	N
18:03	389965	N
18:04	390389	N
18:05	390885	N
18:07	391359	N
18:08	391797	N
18:09	392255	N
18:10	392708	N
18:11	393115	N
18:13	393598	N
18:14	394064	N
18:15	394482	N
18:17	394948	N
18:18	395376	N
18:19	395779	N
18:20	396229	N
18:21	396663	N
18:22	397051	N
18:24	397509	N
18:25	397954	N
18:26	398328	N
18:27	398688	N
18:28	399045	N
18:29	399396	N
18:30	399748	N
18:31	400147	N
18:32	400561	N
18:34	401098	N
18:35	401591	N
18:36	402079	N
18:38	402572	N
18:39	403037	N
18:40	403512	N
18:42	403967	N
18:43	404384	N
18:44	404827	N
18:45	405259	N
18:46	405664	N
18:48	406129	N
18:49	406554	N
18:50	406936	N
18:51	407339	N
18:52	407793	N
18:53	408202	N
18:55	408661	N
18:56	409172	N
18:57	409621	N
18:59	410054	N
19:00	410521	N
19:01	410944	N
19:02	411371	N
19:03	411799	N
19:04	412180	N
19:06	412592	N
19:07	413082	N
19:08	413542	N
19:09	413977	N
19:11	414443	N
19:12	414877	N
19:13	415283	N
19:14	415715	N
19:16	416169	N
19:17	416575	N
19:18	417049	N
19:19	417472	N
19:20	417905	N
19:22	418371	N
19:23	418798	N
19:24	419233	N
19:25	419678	N
19:26	420095	N
19:28	420482	N
19:29	420905	N
19:30	421358	N
19:31	421776	N
19:32	422218	N
19:34	422670	N
19:35	423081	N
19:36	423495	N
19:37	423919	N
19:38	424329	N
19:39	424718	N
19:40	425138	N
19:42	425557	N
19:43	425939	N
19:44	426372	N
19:45	426809	N
19:46	427209	N
19:47	427638	N
19:49	428093	N
19:50	428490	N
19:51	428911	N
19:52	429296	N
19:53	429645	N
19:54	429998	N
19:55	430352	N
19:56	430696	N
19:57	431122	N
19:59	431643	N
20:00	432129	N
20:01	432625	N
20:03	433102	N
20:04	433544	N
20:05	434023	N
20:06	434446	N
20:07	434861	N
20:09	435297	N
20:10	435762	N
20:11	436167	N
20:12	436629	N
20:14	437080	N
20:15	437486	N
20:16	437924	N
20:17	438371	N
20:18	438763	N
20:19	439175	N
20:21	439606	N
20:22	440014	N
20:23	440423	N
20:24	440901	N
20:26	441398	N
20:27	441835	N
20:28	442312	N
20:29	442777	N
20:31	443204	N
20:32	443661	N
20:33	444135	N
20:34	444536	N
20:36	444993	N
20:37	445443	N
20:38	445846	N
20:39	446290	N
20:40	446734	N
20:42	447137	N
20:43	447527	N
20:44	447981	N
20:45	448447	N
20:46	448859	N
20:48	449320	N
20:49	449781	N
20:50	450183	N
20:51	450643	N
20:53	451097	N
20:54	451497	N
20:55	451955	N
20:56	452399	N
20:57	452803	N
20:58	453220	N
21:00	453694	N
21:01	454129	N
21:02	454557	N
21:03	455005	N
21:05	455437	N
21:06	455829	N
21:07	456262	N
21:08	456687	N
21:09	457072	N
21:10	457488	N
21:11	457907	N
21:13	458293	N
21:14	458690	N
21:15	459135	N
21:16	459557	N
21:17	459968	N
21:18	460403	N
21:20	460857	N
21:21	461262	N
21:22	461746	N
21:23	462213	N
21:25	462627	N
21:26	463081	N
21:27	463560	N
21:28	463994	N
21:30	464451	N
21:31	464926	N
21:32	465361	N
21:33	465777	N
21:35	466239	N
21:36	466694	N
21:37	467104	N
21:38	467553	N
21:40	468001	N
21:41	468402	N
21:42	468835	N
21:43	469269	N
21:44	469663	N
21:45	470108	N
21:47	470561	N
21:48	470989	N
21:49	471382	N
21:50	471822	N
21:51	472247	N
21:52	472645	N
21:54	473084	N
21:55	473534	N
21:56	473940	N
21:57	474365	N
21:58	474807	N
22:00	475213	N
22:01	475622	N
22:02	476058	N
22:03	476437	N
22:04	476800	N
22:05	477154	N
22:06	477496	N
22:07	477844	N
22:08	478192	N
22:09	478544	N
22:10	478890	N
22:11	479239	N
22:12	479617	N
22:13	480143	N
22:15	480608	N
22:16	481066	N
22:17	481569	N
22:18	482028	N
22:20	482485	N
22:21	482990	N
22:22	483463	N
22:24	483869	N
22:25	484251	N
22:26	484623	N
22:27	484960	N
22:28	485307	N
22:29	485648	N
22:29	485992	N
22:30	486354	N
22:32	486735	N
22:33	487144	N
22:34	487673	N
22:36	488174	N
22:37	488645	N
22:38	489154	N
22:40	489628	N
22:41	490085	N
22:42	490560	N
22:43	491021	N
22:45	491506	N
22:46	491983	N
22:47	492411	N
22:49	492891	N
22:50	493355	N
22:51	493780	N
22:52	494255	N
22:54	494686	N
22:55	495077	N
22:56	495509	N
22:57	495947	N
22:58	496357	N
23:00	496819	N
23:01	497280	N
23:02	497696	N
23:03	498150	N
23:04	498581	N
23:06	498987	N
23:07	499457	N
23:08	499927	N
23:09	500341	N
23:11	500812	N
23:12	501262	N
23:13	501664	N
23:14	502095	N
23:15	502494	N
23:16	502880	N
23:18	503313	N
23:19	503794	N
23:20	504198	N
23:21	504657	N
23:23	505119	N
23:24	505535	N
23:25	505937	N
23:26	506315	N
23:27	506662	N
23:28	507003	N
23:29	507343	N
23:30	507685	N
23:31	508049	N
23:32	508556	N
23:34	509074	N
23:35	509538	N
23:36	510046	N
23:38	510545	N
23:39	511010	N
23:40	511480	N
23:42	511964	N
23:43	512411	N
23:44	512866	N
23:45	513311	N
23:47	513743	N
23:48	514154	N
23:49	514603	N
23:50	515045	N
23:51	515450	N
23:53	515913	N
23:54	516360	N
23:55	516778	N
23:56	517185	N
23:57	517576	N
23:58	517952	N
23:59	518360	N
24:00	518746	N
24:02	519175	N
24:03	519611	N
24:04	520014	N
24:05	520408	N
24:06	520802	N
24:07	521168	N
24:08	521535	N
24:09	521904	N
24:10	522295	N
24:11	522663	N
24:12	523023	N
24:13	523415	N
24:14	523794	N
24:16	524161	N
24:17	524523	N
24:18	524901	N
24:19	525272	N
24:20	525613	N
24:21	525977	N
24:22	526331	N
24:22	526665	N
24:23	527019	N
24:24	527367	N
24:25	527727	N
24:26	528087	N
24:27	528454	N
24:29	528846	N
24:30	529223	N
24:31	529598	N
24:32	530038	N
24:33	530505	N
24:34	530958	N
24:36	531448	N
24:37	531915	N
24:38	532313	N
24:39	532749	N
24:41	533184	N
24:42	533599	N
24:43	534075	N
24:44	534530	N
24:46	534992	N
24:47	535425	N
24:48	535828	N
24:49	536267	N
24:50	536739	N
24:52	537231	N
24:53	537708	N
24:54	538196	N
24:56	538580	N
24:57	538965	N
24:58	539350	N
24:59	539722	N
25:00	540116	N
25:01	540594	N
25:03	541089	N
25:04	541612	N
25:05	542120	N
25:07	542591	N
25:08	543085	N
25:09	543547	N
25:11	543965	N
25:12	544423	N
25:13	544865	N
25:14	545272	N
25:15	545684	N
25:16	545876	V
25:17	546120	N
25:18	546482	N
25:19	546863	N
25:20	547249	N
25:21	547606	N
25:22	547961	N
25:23	548332	N
25:24	548700	N
25:25	549080	N
25:26	549529	N
25:27	549999	N
25:29	550476	N
25:30	550946	N
25:31	551387	N
25:32	551818	N
25:34	552306	N
25:35	552774	N
25:36	553193	N
25:37	553651	N
25:39	554075	N
25:40	554474	N
25:41	554914	N
25:42	555353	N
25:43	555767	N
25:45	556225	N
25:46	556707	N
25:47	557096	N
25:48	557457	N
25:49	557819	N
25:50	558176	N
25:51	558551	N
25:52	558949	N
25:54	559442	N
25:55	559942	N
25:56	560447	N
25:58	560927	N
25:59	561429	N
26:00	561901	N
26:02	562340	N
26:03	562786	N
26:04	563246	N
26:05	563654	N
26:06	564089	N
26:08	564538	N
26:09	564960	N
26:10	565345	N
26:11	565716	N
26:12	566087	N
26:13	566441	N
26:14	566818	N
26:15	567238	N
26:16	567664	N
26:18	568196	N
26:19	568668	N
26:20	569129	N
26:22	569616	N
26:23	570068	N
26:24	570497	N
26:25	570955	N
26:27	571373	N
26:28	571779	N
26:29	572238	N
26:30	572726	N
26:32	573155	N
26:33	573636	N
26:34	574074	N
26:35	574534	N
26:37	574999	N
26:38	575427	N
26:39	575928	N
26:41	576416	N
26:42	576838	N
26:43	577295	N
26:44	577737	N
26:45	578111	N
26:46	578473	N
26:47	578841	N
26:48	579200	N
26:49	579586	N
26:51	580104	N
26:52	580573	N
26:54	581070	N
26:55	581535	N
26:56	581979	N
26:57	582461	N
26:59	582890	N
27:00	583301	N
27:01	583764	N
27:02	584215	N
27:04	584649	N
27:05	585119	N
27:06	585577	N
27:07	585993	N
27:09	586452	N
27:10	586880	N
27:11	587294	N
27:12	587736	N
27:13	588156	N
27:14	588561	N
27:16	589012	N
27:17	589433	N
27:18	589844	N
27:19	590311	N
27:20	590756	N
27:22	591182	N
27:23	591643	N
27:24	592101	N
27:25	592508	N
27:27	592961	N
27:28	593373	N
27:29	593765	N
27:30	594194	N
27:31	594620	N
27:32	595022	N
27:34	595488	N
27:35	595968	N
27:36	596380	N
27:37	596837	N
27:39	597315	N
27:40	597741	N
27:41	598165	N
27:42	598635	N
27:44	599060	N
27:45	599444	N
27:46	599851	N
27:46	600047	V
27:47	600265	N
27:48	600572	N
27:49	600923	N
27:50	601286	N
27:51	601682	N
27:52	602230	N
27:54	602724	N
27:55	603231	N
27:57	603736	N
27:58	604203	N
27:59	604699	N
28:01	605178	N
28:02	605616	N
28:03	606057	N
28:04	606503	N
28:05	606931	N
28:07	607346	N
28:08	607789	N
28:09	608242	N
28:10	608660	N
28:12	609129	N
28:13	609586	N
28:14	609999	N
28:15	610430	N
28:16	610850	N
28:17	611243	N
28:19	611671	N
28:20	612084	N
28:21	612492	N
28:22	612945	N
28:23	613386	N
28:25	613807	N
28:26	614262	N
28:27	614691	N
28:28	615082	N
28:29	615518	N
28:30	615924	N
28:32	616322	N
28:33	616747	N
28:34	617152	N
28:35	617521	N
28:36	617884	N
28:37	618247	N
28:38	618598	N
28:39	618976	N
28:40	619464	N
28:42	619938	N
28:43	620439	N
28:44	620928	N
28:45	621357	N
28:47	621827	N
28:48	622290	N
28:49	622715	N
28:50	623149	N
28:52	623618	N
28:53	624044	N
28:54	624446	N
28:55	624892	N
28:57	625326	N
28:58	625727	N
28:59	626164	N
29:00	626574	N
29:01	626974	N
29:02	627409	N
29:03	627839	N
29:05	628255	N
29:06	628721	N
29:07	629216	N
29:09	629658	N
29:10	630088	N
29:11	630523	N
29:12	630939	N
29:13	631365	N
29:15	631852	N
29:16	632309	N
29:17	632750	N
29:18	633206	N
29:20	633647	N
29:21	634055	N
29:22	634502	N
29:23	634949	N
29:24	635359	N
29:26	635790	N
29:27	636225	N
29:28	636624	N
29:29	637056	N
29:30	637517	N
29:32	637934	N
29:33	638322	N
29:34	638744	N
29:35	639156	N
29:36	639560	N
29:37	639973	N
29:38	640376	N
29:39	640741	N
29:40	641078	N
29:41	641424	N
29:42	641757	N
29:43	642098	N
29:44	642453	N
29:45	642815	N
29:46	643218	N
29:47	643627	N
29:48	644007	N
29:50	644401	N
29:51	644786	N
29:52	645149	N
29:53	645504	N
29:54	645952	N
29:55	646355	N
29:56	646736	N
29:57	647117	N
29:58	647505	N
29:59	647876	N
30:00	648247	N
30:01	648626	N
30:02	648997	N
30:03	649342	N
30:04	649689	N
