0:00	225	V
0:01	487	N
0:01	689	V
0:02	964	N
0:03	1147	V
0:03	1433	N
0:04	1610	V
0:05	1882	N
0:05	2072	V
0:06	2331	N
0:06	2506	V
0:07	2784	N
0:08	2989	V
0:09	3300	N
0:09	3484	V
0:10	3611	+
0:10	3738	N
0:11	3975	N
0:11	4201	N
0:12	4416	N
0:12	4646	N
0:13	4880	N
0:14	5134	N
0:14	5381	N
0:15	5605	N
0:16	5821	N
0:16	6087	N
0:17	6285	V
0:18	6547	N
0:18	6718	V
0:19	7076	N
0:20	7260	V
0:20	7455	V
0:21	7899	N
0:22	8074	V
0:23	8394	N
0:23	8577	V
0:24	8726	V
0:25	9170	N
0:26	9384	V
0:26	9710	N
0:27	9963	N
0:28	10197	N
0:28	10436	N
0:29	10673	N
0:30	10901	N
0:30	11132	N
0:31	11361	N
0:32	11617	N
0:32	11857	N
0:33	12159	N
0:34	12364	V
0:35	12721	N
0:35	12900	V
0:36	13052	V
0:37	13522	N
0:38	13733	V
0:39	14101	N
0:39	14360	N
0:40	14449	+
0:40	14538	V
0:41	14903	N
0:41	15085	V
0:42	15410	N
0:43	15595	V
0:43	15761	+
0:44	15928	N
0:44	16195	N
0:45	16290	+
0:45	16385	V
0:46	16695	N
0:46	16880	V
0:47	17164	N
0:48	17338	V
0:49	17666	N
0:49	17860	V
0:50	18199	N
0:51	18383	V
0:51	18540	+
0:51	18697	N
0:52	18939	N
0:52	19033	+
0:53	19128	V
0:53	19432	N
0:54	19606	V
0:55	19915	N
0:55	20099	V
0:56	20430	N
0:57	20641	V
0:58	20953	N
0:58	21120	V
0:59	21390	N
0:59	21574	V
1:00	21873	N
1:01	22057	V
1:01	22222	+
1:02	22388	N
1:02	22646	N
1:03	22880	N
1:04	23122	N
1:04	23347	N
1:05	23602	N
1:06	23857	N
1:06	24098	N
1:07	24341	N
1:08	24595	N
1:08	24824	N
1:09	25102	N
1:10	25313	V
1:11	25627	N
1:11	25795	V
1:12	25993	V
1:13	26387	N
1:13	26491	+
1:13	26595	V
1:14	26918	N
1:15	27109	V
1:16	27474	N
1:16	27652	V
1:17	28018	N
1:18	28203	V
1:19	28559	N
1:19	28747	V
1:20	29108	N
1:21	29311	V
1:21	29486	+
1:22	29662	N
1:23	29896	N
1:23	30123	N
1:23	30204	+
1:24	30286	V
1:24	30597	N
1:25	30788	V
1:26	31128	N
1:27	31323	V
1:27	31615	N
1:28	31793	V
1:29	32095	N
1:29	32286	V
1:30	32599	N
1:31	32770	V
1:31	32934	+
1:31	33099	N
1:32	33367	N
1:33	33637	N
1:34	33908	N
1:34	34159	N
1:35	34408	N
1:36	34660	N
1:37	34945	N
1:37	35234	N
1:38	35531	N
1:39	35884	N
1:39	35985	+
1:40	36087	V
1:41	36445	N
1:41	36629	V
1:42	36994	N
1:43	37184	V
1:44	37556	N
1:44	37789	V
1:45	38127	N
1:46	38319	V
1:47	38635	N
1:47	38810	V
1:48	39129	N
1:48	39210	+
1:49	39319	V
1:49	39484	V
1:50	39791	V
1:51	40109	+
1:51	40200	N
1:52	40377	V
1:53	40688	N
1:53	40889	V
1:54	41164	N
1:54	41355	V
1:55	41732	N
1:56	41928	V
1:56	42102	+
1:57	42277	N
1:58	42542	N
1:58	42636	+
1:58	42730	V
1:59	43032	N
2:00	43212	V
2:00	43516	N
2:01	43722	V
2:02	44063	N
2:02	44261	V
2:03	44569	N
2:04	44756	V
2:05	45060	N
2:05	45245	V
2:06	45569	N
2:07	45759	V
2:08	46085	N
2:08	46270	V
2:08	46439	+
2:09	46608	N
2:10	46835	N
2:10	46931	+
2:10	47027	V
2:11	47352	N
2:12	47544	V
2:12	47857	N
2:13	48043	V
2:13	48208	+
2:14	48374	N
2:15	48710	N
2:16	49016	N
2:16	49273	N
2:17	49553	N
2:18	49834	N
2:19	50112	N
2:19	50385	N
2:20	50660	N
2:21	50927	N
2:22	51197	N
2:22	51461	N
2:23	51707	N
2:24	51954	N
2:25	52200	N
2:25	52486	N
2:26	52784	N
2:27	53063	N
2:28	53300	N
2:28	53541	N
2:29	53789	N
2:30	54037	N
2:30	54289	N
2:31	54555	N
2:32	54823	N
2:32	55070	N
2:33	55329	N
2:34	55604	N
2:35	55845	N
2:35	56080	N
2:36	56321	N
2:37	56571	N
2:37	56820	N
2:38	57096	N
2:39	57375	N
2:40	57618	N
2:40	57857	N
2:41	58096	N
2:42	58352	N
2:42	58608	N
2:43	58878	N
2:44	59140	N
2:44	59399	N
2:45	59649	N
2:46	59905	N
2:47	60162	N
2:47	60402	N
2:48	60646	N
2:49	60883	N
2:49	61148	N
2:50	61436	N
2:51	61706	N
2:52	61947	N
2:52	62182	N
2:53	62424	N
2:54	62671	N
2:54	62920	N
2:55	63181	N
2:56	63444	N
2:56	63633	V
2:57	63859	V
2:58	64209	N
2:58	64395	V
2:59	64628	V
3:00	64936	N
3:00	65025	+
3:00	65114	V
3:01	65441	N
3:02	65638	V
3:03	65988	N
3:03	66173	V
3:04	66478	N
3:05	66647	V
3:05	66953	N
3:06	67155	V
3:07	67471	N
3:07	67668	V
3:08	67997	N
3:09	68191	V
3:10	68514	N
3:10	68701	V
3:11	69036	N
3:12	69212	V
3:13	69532	N
3:13	69754	V
3:14	70100	N
3:15	70307	V
3:16	70618	N
3:16	70798	V
3:17	71086	N
3:17	71261	V
3:18	71576	N
3:19	71819	V
3:20	72110	N
3:20	72320	V
3:21	72612	N
3:22	72805	V
3:23	73125	N
3:23	73309	V
3:24	73599	N
3:24	73788	V
3:25	74094	N
3:26	74282	V
3:26	74439	+
3:27	74596	N
3:27	74853	N
3:28	75084	N
3:29	75318	N
3:29	75517	A
3:30	75785	N
3:31	76059	N
3:32	76333	N
3:32	76583	N
3:33	76841	N
3:34	77100	N
3:34	77346	N
3:35	77455	+
3:35	77564	V
3:36	77856	N
3:36	78043	V
3:37	78374	N
3:38	78565	V
3:39	78948	N
3:39	79133	V
3:40	79269	~
3:40	79451	N
3:41	79657	V
3:41	79796	+
3:42	79935	N
3:42	80174	N
3:43	80438	N
3:43	80562	+
3:44	80686	V
3:44	80972	N
3:45	81170	V
3:46	81459	N
3:46	81653	V
3:47	81962	N
3:48	82144	V
3:48	82428	N
3:49	82613	V
3:49	82764	V
3:50	83073	~
3:51	83181	N
3:51	83371	V
3:51	83519	+
3:52	83667	N
3:53	83909	N
3:53	84125	N
3:54	84351	N
3:54	84595	N
3:55	84845	N
3:56	85098	N
3:57	85321	N
3:57	85547	N
3:57	85611	~
3:58	85791	N
3:58	85981	A
3:59	86230	N
4:00	86473	N
4:00	86694	N
4:01	86927	N
4:02	87160	N
4:02	87340	V
4:03	87666	N
4:04	87848	V
4:04	88135	N
4:05	88356	N
4:06	88572	N
4:06	88801	N
4:07	89037	N
4:08	89285	N
4:08	89549	N
4:09	89784	N
4:10	90008	N
4:10	90228	N
4:11	90463	N
4:11	90704	N
4:12	90940	N
4:13	91173	N
4:13	91408	N
4:14	91663	N
4:15	91898	N
4:15	92140	N
4:16	92383	N
4:17	92581	V
4:17	92834	N
4:18	93032	N
4:19	93287	N
4:19	93511	V
4:20	93818	N
4:21	94047	V
4:21	94292	N
4:22	94517	N
4:23	94736	N
4:23	94965	N
4:24	95196	N
4:25	95405	V
4:25	95676	N
4:26	95913	N
4:27	96152	N
4:27	96354	V
4:28	96637	N
4:28	96819	V
4:29	97073	N
4:30	97290	N
4:30	97511	N
4:31	97734	N
4:32	97983	N
4:32	98234	N
4:33	98471	N
4:34	98661	V
4:34	98907	V
4:35	99123	N
4:36	99361	N
4:36	99592	N
4:37	99832	N
4:37	99998	V
4:38	100289	N
4:39	100529	N
4:39	100748	N
4:40	100949	V
4:41	101213	N
4:41	101386	V
4:42	101648	N
4:42	101859	N
4:43	102083	N
4:44	102352	N
4:44	102593	N
4:45	102825	N
4:46	103032	N
4:46	103238	N
4:47	103452	N
4:47	103658	N
4:48	103878	N
4:49	104095	V
4:49	104336	N
4:50	104533	V
4:51	104786	N
4:51	105015	N
4:52	105251	N
4:52	105466	N
4:53	105681	N
4:54	105863	V
4:54	106085	N
4:55	106262	V
4:55	106528	N
4:56	106771	N
4:57	107015	N
4:57	107236	N
4:58	107453	N
4:59	107656	N
4:59	107867	N
5:00	108094	N
5:00	108321	N
5:01	108533	V
5:02	108779	N
5:02	109014	N
5:03	109245	N
5:04	109457	N
5:04	109682	N
5:04	109752	~
5:05	109879	V
5:05	110122	N
5:06	110335	N
5:07	110542	N
5:07	110725	V
5:08	111000	N
5:08	111223	V
5:09	111479	N
5:10	111700	N
5:10	111902	N
5:11	112101	N
5:11	112306	N
5:12	112509	N
5:13	112736	N
5:13	112853	+
5:13	112970	V
5:14	113206	N
5:15	113404	V
5:15	113637	N
5:16	113834	V
5:16	114093	N
5:17	114287	V
5:17	114404	+
5:18	114521	N
5:18	114719	N
5:19	114932	N
5:19	115144	V
5:20	115376	N
5:21	115613	N
5:21	115732	~
5:21	115839	N
5:22	115939	+
5:22	116039	V
5:22	116262	N
5:23	116323	~
5:23	116436	V
5:24	116662	N
5:24	116861	V
5:25	117121	N
5:25	117313	V
5:26	117446	+
5:26	117579	N
5:27	117805	N
5:27	118017	N
5:28	118211	V
5:29	118444	N
5:29	118623	V
5:30	118881	N
5:30	119096	N
5:31	119325	N
5:32	119538	N
5:32	119785	N
5:33	120016	V
5:34	120253	N
5:34	120442	V
5:35	120673	N
5:35	120878	N
5:36	121097	N
5:36	121288	V
5:37	121547	N
5:38	121759	V
5:39	122042	N
5:39	122110	~
5:39	122268	N
5:40	122484	N
5:40	122696	N
5:41	122942	N
5:42	123128	V
5:42	123390	N
5:43	123612	N
5:43	123838	N
5:44	124077	N
5:45	124322	N
5:45	124430	~
5:45	124540	V
5:46	124787	N
5:47	124976	V
5:47	125222	N
5:48	125441	N
5:49	125684	N
5:49	125923	N
5:50	126168	N
5:51	126411	N
5:51	126641	N
5:52	126750	+
5:52	126860	V
5:52	127078	N
5:53	127277	V
5:54	127542	N
5:54	127733	V
5:55	128008	N
5:56	128203	V
5:56	128346	+
5:56	128489	N
5:57	128740	N
5:58	128982	N
5:58	129215	N
5:59	129418	N
5:59	129532	~
6:00	129636	N
6:00	129870	N
6:01	130087	N
6:01	130152	~
6:02	130339	N
6:02	130584	N
6:03	130842	N
6:04	131042	V
6:04	131284	N
6:05	131466	V
6:05	131754	N
6:06	131989	N
6:07	132235	N
6:07	132468	N
6:08	132704	N
6:09	132929	N
6:09	133096	V
6:10	133419	N
6:11	133618	V
6:11	133877	N
6:12	134111	N
6:13	134336	N
6:13	134598	N
6:14	134883	N
6:15	135131	N
6:16	135362	N
6:16	135583	N
6:17	135819	N
6:17	136034	N
6:18	136272	N
6:19	136520	N
6:19	136761	N
6:20	137014	N
6:21	137244	N
6:21	137479	N
6:22	137725	N
6:23	137949	N
6:23	138173	N
6:24	138393	N
6:25	138625	N
6:25	138868	N
6:25	138930	~
6:26	139123	N
6:27	139382	N
6:27	139595	~
6:27	139638	N
6:28	139878	N
6:29	140105	N
6:29	140332	N
6:30	140584	N
6:31	140802	N
6:31	141083	N
6:32	141162	+
6:32	141242	V
6:33	141570	N
6:33	141772	V
6:34	142044	N
6:35	142226	V
6:35	142533	N
6:36	142740	V
6:37	142968	N
6:37	143161	V
6:38	143635	N
6:39	143828	V
6:39	143988	V
6:41	144408	N
6:41	144592	V
6:42	144759	+
6:42	144926	N
6:43	145203	N
6:44	145484	N
6:44	145759	N
6:45	146010	N
6:46	146268	N
6:46	146354	+
6:46	146441	V
6:47	146757	N
6:48	146939	V
6:48	147215	N
6:49	147402	V
6:50	147711	N
6:50	147918	V
6:51	148068	+
6:51	148218	N
6:52	148475	N
6:53	148710	N
6:53	148928	N
6:54	149157	N
6:55	149407	N
6:55	149647	N
6:56	149900	N
6:57	150127	N
6:57	150372	N
6:58	150612	N
6:59	150849	N
6:59	151096	N
7:00	151344	N
7:01	151594	N
7:01	151845	N
7:02	152116	N
7:03	152399	N
7:04	152662	N
7:04	152921	N
7:05	153150	N
7:05	153339	A
7:06	153613	N
7:06	153719	+
7:07	153826	V
7:08	154260	N
7:09	154459	V
7:09	154799	N
7:10	155010	V
7:11	155313	N
7:11	155505	V
7:12	155822	N
7:13	155997	V
7:14	156316	N
7:14	156519	V
7:15	156838	N
7:16	157023	V
7:17	157322	N
7:17	157512	V
7:18	157777	N
7:18	157959	V
7:19	158293	N
7:20	158494	V
7:21	158812	N
7:21	158991	V
7:22	159270	N
7:22	159455	V
7:23	159753	N
7:24	159922	V
7:24	160086	+
7:25	160251	N
7:25	160514	N
7:26	160719	A
7:26	160919	V
7:28	161381	N
7:28	161560	V
7:29	161902	N
7:30	162159	N
7:31	162417	N
7:31	162690	N
7:32	162970	N
7:33	163235	N
7:34	163487	N
7:34	163720	N
7:35	163821	+
7:35	163922	V
7:36	164221	N
7:36	164411	V
7:37	164731	N
7:38	164916	V
7:39	165245	N
7:39	165435	V
7:40	165751	N
7:40	165936	V
7:41	166089	+
7:41	166243	N
7:42	166488	N
7:43	166729	N
7:43	167002	N
7:44	167285	N
7:45	167555	N
7:45	167650	+
7:45	167745	V
7:46	168030	N
7:47	168223	V
7:48	168499	N
7:48	168687	V
7:49	169008	N
7:49	169197	V
7:50	169386	V
7:51	169729	N
7:51	169910	V
7:52	170092	+
7:52	170275	N
7:53	170527	N
7:54	170755	N
7:55	171000	N
7:55	171266	N
7:56	171532	N
7:57	171814	N
7:57	172054	N
7:58	172342	N
7:58	172432	+
7:59	172523	V
8:00	172857	N
8:00	172987	~
8:00	173061	V
8:01	173434	N
8:02	173646	V
8:03	174029	N
8:03	174227	V
8:04	174598	N
8:05	174788	V
8:06	175150	N
8:07	175357	V
8:07	175625	~
8:08	175698	N
8:08	175916	V
8:09	176108	+
8:09	176300	N
8:10	176573	N
8:11	176799	N
8:11	177033	N
8:12	177272	N
8:13	177513	N
8:13	177774	N
8:14	178045	N
8:15	178259	V
8:15	178525	N
8:16	178762	N
8:17	178967	V
8:17	179258	N
8:18	179496	N
8:19	179740	N
8:19	179849	+
8:19	179958	V
8:20	180257	N
8:21	180449	V
8:22	180767	N
8:22	180969	V
8:23	181259	N
8:23	181429	V
8:24	181721	N
8:25	181927	V
8:26	182272	N
8:26	182480	V
8:27	182633	+
8:27	182786	N
8:28	183034	N
8:28	183121	+
8:28	183208	V
8:29	183507	N
8:30	183703	V
8:31	184004	N
8:31	184208	V
8:32	184523	N
8:33	184730	V
8:34	185050	N
8:34	185236	V
8:34	185368	+
8:35	185500	N
8:35	185739	N
8:36	185975	N
8:37	186212	N
8:38	186480	N
8:38	186770	N
8:39	186983	A
8:40	187277	N
8:40	187357	+
8:40	187438	V
8:41	187827	N
8:42	188018	V
8:43	188366	N
8:43	188553	V
8:44	188716	+
8:44	188879	N
8:45	189230	N
8:46	189521	N
8:47	189811	N
8:48	190080	N
8:48	190337	N
8:49	190620	N
8:50	190941	N
8:51	191236	N
8:51	191505	N
8:52	191772	N
8:53	192037	N
8:54	192299	N
8:54	192568	N
8:55	192852	N
8:56	193125	N
8:57	193381	N
8:57	193644	N
8:58	193920	N
8:59	194169	N
9:00	194418	N
9:00	194661	N
9:01	194918	N
9:02	195179	N
9:02	195468	N
9:03	195753	N
9:04	196001	N
9:05	196245	N
9:05	196485	N
9:06	196756	N
9:07	197026	N
9:08	197300	N
9:08	197544	N
9:09	197794	N
9:10	198044	N
9:10	198288	N
9:11	198537	N
9:12	198793	N
9:12	199039	N
9:13	199288	N
9:14	199566	N
9:15	199868	N
9:15	200130	N
9:16	200382	N
9:17	200624	N
9:17	200864	N
9:18	201097	N
9:19	201359	N
9:20	201651	N
9:20	201918	N
9:21	202181	N
9:22	202437	N
9:22	202543	+
9:22	202649	V
9:23	202959	N
9:24	203152	V
9:25	203461	N
9:25	203662	V
9:26	203980	N
9:27	204189	V
9:28	204516	N
9:28	204740	V
9:29	205010	N
9:29	205185	V
9:30	205477	N
9:31	205688	V
9:32	206014	N
9:32	206225	V
9:33	206513	N
9:34	206697	V
9:34	206977	N
9:35	207163	V
9:36	207457	N
9:36	207653	V
9:37	207887	V
9:37	208061	~
9:38	208194	N
9:38	208413	V
9:39	208730	N
9:40	208920	V
9:41	209212	N
9:41	209389	V
9:42	209652	N
9:42	209841	V
9:43	210162	N
9:44	210370	V
9:45	210703	N
9:45	210889	V
9:46	211174	N
9:47	211360	V
9:47	211666	N
9:48	211855	V
9:48	211925	~
9:49	212176	N
9:50	212400	V
9:50	212660	N
9:51	212870	V
9:52	213203	N
9:52	213389	V
9:53	213565	~
9:53	213716	N
9:54	213905	V
9:54	214195	N
9:55	214403	V
9:56	214780	N
9:57	215025	V
9:58	215324	N
9:58	215513	V
9:59	215806	N
9:59	215979	V
10:00	216300	N
10:01	216565	V
10:02	216810	V
10:03	217121	N
10:03	217288	V
10:04	217465	V
10:05	217800	~
10:05	217895	N
10:05	218093	V
10:06	218236	+
10:06	218313	~
10:06	218379	N
10:07	218629	N
10:08	218881	F
10:08	219157	N
10:09	219266	+
10:09	219376	V
10:09	219498	~
10:10	219683	N
10:10	219865	V
10:11	220135	N
10:11	220311	V
10:12	220638	N
10:13	220847	V
10:14	221176	N
10:14	221367	V
10:15	221665	N
10:16	221859	V
10:16	222004	+
10:16	222054	~
10:17	222150	N
10:17	222393	N
10:18	222637	N
10:19	222869	N
10:19	223129	N
10:20	223379	N
10:21	223651	N
10:21	223744	~
10:21	223910	N
10:22	224155	N
10:23	224379	N
10:23	224615	N
10:24	224850	N
10:24	224948	~
10:25	225104	N
10:26	225382	N
10:26	225660	N
10:27	225894	A
10:27	225962	~
10:28	226161	N
10:28	226356	V
10:29	226680	N
10:29	226766	+
10:30	226859	V
10:30	227018	V
10:31	227195	V
10:31	227379	+
10:32	227616	N
10:32	227842	V
10:33	228234	N
10:34	228427	V
10:35	228676	~
10:35	228744	N
10:36	228976	N
10:36	229207	N
10:37	229464	N
10:38	229739	N
10:38	230010	N
10:39	230244	N
10:40	230480	N
10:40	230718	N
10:41	230812	+
10:41	230906	V
10:42	231170	N
10:42	231363	V
10:43	231665	N
10:44	231889	V
10:44	232155	N
10:45	232377	V
10:45	232515	+
10:46	232654	N
10:46	232889	N
10:47	233122	N
10:48	233316	V
10:48	233553	N
10:49	233752	V
10:50	234032	N
10:50	234243	V
10:51	234431	V
10:52	234778	N
10:52	234980	V
10:53	235218	N
10:54	235448	N
10:54	235696	N
10:55	235911	V
10:56	236194	N
10:56	236384	V
10:57	236661	N
10:58	236892	N
10:58	237121	N
10:59	237321	V
10:59	237584	N
11:00	237777	V
11:01	238021	N
11:01	238255	N
11:02	238514	N
11:03	238731	V
11:03	238899	V
11:04	239231	N
11:05	239454	N
11:05	239670	N
11:06	239854	V
11:06	240119	N
11:07	240320	V
11:08	240611	N
11:09	240856	N
11:09	241077	N
11:10	241267	V
11:10	241537	N
11:11	241771	N
11:12	241981	N
11:12	242167	V
11:13	242435	N
11:14	242684	N
11:14	242918	N
11:15	243128	V
11:16	243400	N
11:16	243583	V
11:17	243850	N
11:17	244056	N
11:18	244277	N
11:19	244486	V
11:19	244778	N
11:20	244984	V
11:21	245261	N
11:21	245489	N
11:22	245719	N
11:23	245897	V
11:23	246132	N
11:24	246320	V
11:25	246605	N
11:25	246853	N
11:26	247080	N
11:26	247300	V
11:27	247585	N
11:28	247780	V
11:29	248043	N
11:29	248247	N
11:30	248453	N
11:30	248652	V
11:31	248903	N
11:31	249106	V
11:32	249413	N
11:33	249647	N
11:34	249871	N
11:34	250083	N
11:35	250305	N
11:35	250542	N
11:36	250764	N
11:36	250853	~
11:37	250978	N
11:37	251221	N
11:38	251426	V
11:39	251705	N
11:39	251885	V
11:40	252147	N
11:41	252387	N
11:41	252606	N
11:42	252829	N
11:42	253035	N
11:43	253265	N
11:44	253504	N
11:44	253787	N
11:45	254030	N
11:46	254250	N
11:46	254467	N
11:47	254686	N
11:47	254873	A
11:48	255127	N
11:49	255242	+
11:49	255358	V
11:50	255629	N
11:50	255834	V
11:51	256093	N
11:51	256297	V
11:52	256435	+
11:52	256574	N
11:53	256815	N
11:54	257051	N
11:54	257145	+
11:54	257239	V
11:55	257493	N
11:55	257684	V
11:56	257974	N
11:57	258204	V
11:57	258347	+
11:58	258490	N
11:58	258718	N
11:59	258943	N
11:59	259119	V
12:00	259387	N
12:01	259588	V
12:01	259907	N
12:02	260179	N
12:03	260413	N
12:03	260626	A
12:04	260878	N
12:05	261069	V
12:05	261345	N
12:06	261539	V
12:07	261830	N
12:07	262071	N
12:08	262323	N
12:09	262568	N
12:10	262842	N
12:10	263041	V
12:11	263300	N
12:11	263473	V
12:12	263762	N
12:13	264002	N
12:14	264262	N
12:14	264534	N
12:15	264777	N
12:16	265013	N
12:16	265237	N
12:17	265481	N
12:18	265730	N
12:18	265975	N
12:19	266206	N
12:20	266460	N
12:20	266720	N
12:21	266806	+
12:21	266893	V
12:22	267212	N
12:22	267417	V
12:23	267704	N
12:24	267910	V
12:24	268039	+
12:24	268168	N
12:25	268397	A
12:26	268704	N
12:26	268810	+
12:26	268917	V
12:27	269237	N
12:28	269418	V
12:29	269713	N
12:29	269887	V
12:30	270187	N
12:31	270391	V
12:31	270562	+
12:32	270733	N
12:32	270768	~
12:32	270995	N
12:33	271242	N
12:34	271505	N
12:34	271759	N
12:35	271977	N
12:36	272206	N
12:36	272438	N
12:37	272685	N
12:38	272924	N
12:38	273187	N
12:39	273456	N
12:40	273690	N
12:40	273923	N
12:41	274140	N
12:42	274379	N
12:42	274641	N
12:43	274903	N
12:44	275167	N
12:45	275422	N
12:45	275671	N
12:46	275900	N
12:47	276143	N
12:47	276394	N
12:48	276633	N
12:49	276877	N
12:49	277094	A
12:50	277386	N
12:51	277678	N
12:52	277925	N
12:52	278189	N
12:53	278425	N
12:54	278640	N
12:54	278891	N
12:55	279158	N
12:56	279431	N
12:56	279713	N
12:57	279970	N
12:58	280214	N
12:59	280472	N
12:59	280576	+
12:59	280680	V
13:00	280988	N
13:01	281196	V
13:01	281482	N
13:02	281717	V
13:02	281850	+
13:03	281984	N
13:04	282254	N
13:04	282508	N
13:05	282737	N
13:05	282958	N
13:06	283165	A
13:07	283433	N
13:07	283560	+
13:08	283687	V
13:08	283965	N
13:09	284159	V
13:10	284437	N
13:10	284620	V
13:11	284895	N
13:11	285084	V
13:12	285387	N
13:13	285574	V
13:13	285736	+
13:14	285898	N
13:14	286152	N
13:15	286414	N
13:15	286526	+
13:16	286638	V
13:16	286913	N
13:17	287095	V
13:18	287359	N
13:18	287541	V
13:19	287835	N
13:20	288045	V
13:20	288212	+
13:21	288379	N
13:21	288606	N
13:22	288867	N
13:22	289043	V
13:23	289316	N
13:24	289512	V
13:24	289669	V
13:25	290071	N
13:26	290260	V
13:27	290561	N
13:27	290801	N
13:28	291036	N
13:29	291270	N
13:29	291504	N
13:30	291724	N
13:30	291953	N
13:31	292063	+
13:31	292173	V
13:32	292441	N
13:32	292676	V
13:33	292959	N
13:34	293143	V
13:34	293270	+
13:34	293397	N
13:35	293621	N
13:36	293834	N
13:36	294034	V
13:37	294307	N
13:38	294523	V
13:38	294808	N
13:39	295033	N
13:40	295255	N
13:40	295491	N
13:41	295727	N
13:42	295949	N
13:42	296171	N
13:43	296395	N
13:43	296630	N
13:44	296873	N
13:45	297119	N
13:45	297339	V
13:46	297597	N
13:47	297790	V
13:47	298023	N
13:48	298232	N
13:49	298464	N
13:49	298701	V
13:50	298979	V
13:51	299227	N
13:51	299442	N
13:52	299656	N
13:52	299873	N
13:53	300087	N
13:54	300306	N
13:54	300542	N
13:55	300756	N
13:56	300986	N
13:56	301209	N
13:57	301415	V
13:58	301691	N
13:58	301912	N
13:59	302135	N
13:59	302312	V
14:00	302537	N
14:00	302753	N
14:01	302965	N
14:02	303186	V
14:02	303440	N
14:03	303666	N
14:04	303882	N
14:04	304069	V
14:05	304278	N
14:05	304495	N
14:06	304725	N
14:07	304924	V
14:07	305161	N
14:08	305376	N
14:08	305593	N
14:09	305806	V
14:10	306018	N
14:10	306230	N
14:11	306449	N
14:11	306650	N
14:12	306855	N
14:12	307051	N
14:13	307262	N
14:14	307497	N
14:14	307741	N
14:15	307960	N
14:16	308179	N
14:16	308374	N
14:17	308564	N
14:17	308765	N
14:18	308956	N
14:18	309168	N
14:19	309396	N
14:20	309625	N
14:20	309855	N
14:21	310066	N
14:21	310270	N
14:22	310488	N
14:23	310715	N
14:23	310919	N
14:24	311132	N
14:24	311324	N
14:25	311532	N
14:26	311760	N
14:26	311974	N
14:27	312207	N
14:27	312436	N
14:28	312646	N
14:29	312852	N
14:29	313046	N
14:30	313240	N
14:30	313455	N
14:31	313693	N
14:32	313921	N
14:32	314163	N
14:33	314371	N
14:33	314580	N
14:34	314802	N
14:34	314995	N
14:35	315209	N
14:36	315425	N
14:36	315628	V
14:37	315856	N
14:37	316074	N
14:38	316297	N
14:39	316538	N
14:39	316778	N
14:40	316991	N
14:41	317208	N
14:41	317405	N
14:42	317601	N
14:42	317818	N
14:43	318031	N
14:44	318270	N
14:44	318523	N
14:45	318757	N
14:46	318982	N
14:46	319182	N
14:47	319386	N
14:47	319608	N
14:48	319830	N
14:49	320052	N
14:49	320279	N
14:50	320502	N
14:50	320718	N
14:51	320940	N
14:52	321164	N
14:52	321379	N
14:53	321602	N
14:53	321806	N
14:54	322018	N
14:55	322217	N
14:55	322447	N
14:55	322512	~
14:56	322680	V
14:57	322956	N
14:57	323178	N
14:58	323392	N
14:58	323603	N
14:59	323812	N
14:59	323987	V
15:00	324232	N
15:01	324467	N
15:01	324702	N
15:02	324933	N
15:03	325154	N
15:03	325380	N
15:04	325612	N
15:05	325840	N
15:05	326054	N
15:06	326263	N
15:06	326473	N
15:07	326690	N
15:08	326913	N
15:08	327155	N
15:09	327388	N
15:10	327633	N
15:10	327845	N
15:11	328063	N
15:11	328264	N
15:12	328485	N
15:13	328734	N
15:13	328944	N
15:14	329208	N
15:15	329400	V
15:15	329660	N
15:16	329887	N
15:16	330100	N
15:17	330322	N
15:18	330561	N
15:18	330754	V
15:19	331021	N
15:20	331248	N
15:20	331501	N
15:21	331726	V
15:22	332001	N
15:22	332210	N
15:23	332422	N
15:23	332601	V
15:24	332871	N
15:25	333092	N
15:25	333336	N
15:26	333600	N
15:27	333836	N
15:27	334045	N
15:28	334267	N
15:29	334457	V
15:29	334735	N
15:30	334957	N
15:31	335194	N
15:31	335424	N
15:32	335670	N
15:32	335767	~
15:33	335921	N
15:33	336145	N
15:34	336390	N
15:35	336627	N
15:35	336835	N
15:36	337073	N
15:36	337168	+
15:36	337263	V
15:37	337529	N
15:38	337753	V
15:39	338071	N
15:39	338281	V
15:40	338417	+
15:40	338553	N
15:41	338777	N
15:41	339008	N
15:42	339228	N
15:42	339471	N
15:43	339738	N
15:44	339989	N
15:45	340242	N
15:45	340338	+
15:45	340435	V
15:46	340610	V
15:47	340959	V
15:47	341142	V
15:48	341352	+
15:48	341426	N
15:49	341648	N
15:49	341877	N
15:50	342122	N
15:50	342308	V
15:51	342621	N
15:52	342834	V
15:52	342982	~
15:53	343082	N
15:53	343295	N
15:54	343512	N
15:54	343761	N
15:55	344018	N
15:56	344273	N
15:57	344521	N
15:57	344745	N
15:58	344995	N
15:58	345092	+
15:58	345189	V
15:59	345451	N
16:00	345642	V
16:00	345927	N
16:01	346118	V
16:02	346403	N
16:02	346609	V
16:03	346933	N
16:04	347121	V
16:04	347264	+
16:05	347407	N
16:05	347591	A
16:06	347846	N
16:06	347942	+
16:06	347954	~
16:06	348038	V
16:07	348329	N
16:08	348534	V
16:09	348841	N
16:09	349032	V
16:10	349318	N
16:10	349495	V
16:11	349771	N
16:12	349970	V
16:12	350112	+
16:12	350255	N
16:13	350459	A
16:14	350724	N
16:14	350828	+
16:14	350933	V
16:15	351206	N
16:16	351406	V
16:16	351691	N
16:17	351817	~
16:17	351884	V
16:18	352155	N
16:18	352331	V
16:19	352624	V
16:19	352765	+
16:20	352906	N
16:21	353180	N
16:21	353351	~
16:21	353441	N
16:22	353659	N
16:23	353883	N
16:23	354110	N
16:23	354197	+
16:24	354285	V
16:24	354583	N
16:25	354801	V
16:26	355092	N
16:26	355295	V
16:27	355601	N
16:28	355800	V
16:28	355958	+
16:29	356116	N
16:29	356366	N
16:30	356458	+
16:30	356550	V
16:31	356827	N
16:31	357052	V
16:32	357364	N
16:33	357572	V
16:34	357946	N
16:34	358124	V
16:35	358419	N
16:36	358600	V
16:36	358754	+
16:36	358909	N
16:37	359185	N
16:38	359466	N
16:39	359713	N
16:39	359947	N
16:40	360163	N
16:41	360399	N
16:41	360605	V
16:42	360887	N
16:42	361074	V
16:43	361226	V
16:44	361610	N
16:44	361716	+
16:45	361822	V
16:45	362046	~
16:45	362142	N
16:46	362339	V
16:47	362594	N
16:47	362761	V
16:48	363043	N
16:48	363232	V
16:49	363530	N
16:50	363738	V
16:51	364070	N
16:51	364258	V
16:52	364527	N
16:53	364704	V
16:53	365003	N
16:54	365204	V
16:55	365501	N
16:55	365686	V
16:56	365987	N
16:57	366195	V
16:57	366477	N
16:58	366666	V
16:59	366962	N
16:59	367142	V
17:00	367404	N
17:01	367578	V
17:01	367906	N
17:02	368134	V
17:03	368450	N
17:03	368639	V
17:04	368919	N
17:05	369103	V
17:06	369367	N
17:06	369557	V
17:07	369876	N
17:08	370081	V
17:08	370401	N
17:09	370586	V
17:10	370896	N
17:10	371102	V
17:11	371400	N
17:12	371587	V
17:13	371883	N
17:13	372074	V
17:14	372404	N
17:15	372612	V
17:15	372928	N
17:16	373132	V
17:16	373273	V
17:18	373706	N
17:18	373898	V
17:19	374353	N
17:20	374584	V
17:20	374750	+
17:21	374916	N
17:22	375168	N
17:22	375412	N
17:23	375662	N
17:24	375883	A
17:24	376160	N
17:25	376430	N
17:26	376680	N
17:27	376952	N
17:27	377244	N
17:28	377494	N
17:29	377742	N
17:29	377980	N
17:30	378234	N
17:31	378493	N
17:32	378788	N
17:32	379038	N
17:33	379322	N
17:34	379702	N
17:35	379800	+
17:35	379898	V
17:36	380295	N
17:36	380487	V
17:38	380915	N
17:38	381119	V
17:39	381525	N
17:40	381717	V
17:41	382088	N
17:41	382304	V
17:42	382620	N
17:43	382803	V
17:44	383168	N
17:45	383451	V
17:46	383761	N
17:46	383952	V
17:47	384244	N
17:47	384439	V
17:48	384748	N
17:49	384946	V
17:50	385313	N
17:50	385419	+
17:50	385515	V
17:51	385684	V
17:51	385887	F
17:52	386019	+
17:52	386082	N
17:53	386288	V
17:53	386608	N
17:54	386805	V
17:55	387113	N
17:55	387307	V
17:56	387636	N
17:57	387844	V
17:58	388175	N
17:58	388365	V
17:59	388660	N
18:00	388834	V
18:01	389161	N
18:01	389384	V
18:02	389741	N
18:03	389941	V
18:04	390259	N
18:04	390455	V
18:05	390762	N
18:05	390947	V
18:06	391285	N
18:07	391483	V
18:08	391829	N
18:08	392027	V
18:09	392398	N
18:10	392599	V
18:11	392924	N
18:11	393102	V
18:12	393433	N
18:13	393656	V
18:14	393996	N
18:15	394234	V
18:16	394571	N
18:16	394763	V
18:16	394913	V
18:18	395352	N
18:18	395557	V
18:19	395930	N
18:20	396038	+
18:20	396126	V
18:20	396325	V
18:21	396468	V
18:21	396585	V
18:22	396825	+
18:22	396904	N
18:23	397091	V
18:24	397521	N
18:24	397718	V
18:25	398082	N
18:26	398314	V
18:27	398647	V
18:28	399037	N
18:28	399221	V
18:29	399576	N
18:30	399754	V
18:31	400143	N
18:32	400371	V
18:33	400771	N
18:33	400987	V
18:34	401310	N
18:35	401553	V
18:36	401839	N
18:36	402030	V
18:37	402348	N
18:38	402556	V
18:38	402724	V
18:39	403149	N
18:40	403357	V
18:41	403659	N
18:41	403844	V
18:42	404125	N
18:43	404331	V
18:44	404685	N
18:44	404899	V
18:45	405057	+
18:45	405215	N
18:46	405460	N
18:46	405554	+
18:46	405648	V
18:47	405929	N
18:48	406130	V
18:48	406428	N
18:49	406620	V
18:50	406896	N
18:50	407075	V
18:51	407450	N
18:52	407653	V
18:53	407973	N
18:53	408085	+
18:53	408148	V
18:54	408325	V
18:54	408537	V
18:55	408863	+
18:55	408951	N
18:56	409157	V
18:57	409507	N
18:58	409703	V
18:58	409996	N
18:59	410177	V
19:00	410500	N
19:00	410689	V
19:01	411030	N
19:02	411227	V
19:02	411391	~
19:03	411548	N
19:03	411739	V
19:04	412042	N
19:05	412237	V
19:05	412539	N
19:06	412726	V
19:07	413027	N
19:07	413149	~
19:07	413236	V
19:08	413609	N
19:09	413807	V
19:09	413979	V
19:11	414362	N
19:11	414539	V
19:11	414691	+
19:12	414843	N
19:13	415105	N
19:13	415384	N
19:14	415655	N
19:15	415894	N
19:15	416153	N
19:16	416412	N
19:17	416680	N
19:17	416868	V
19:18	417132	N
19:19	417346	V
19:19	417497	V
19:21	417973	N
19:21	418075	+
19:21	418178	V
19:22	418568	N
19:23	418782	V
19:24	419057	N
19:24	419280	V
19:25	419444	+
19:25	419608	N
19:26	419895	N
19:26	420004	+
19:26	420113	V
19:27	420416	N
19:28	420614	V
19:29	420898	N
19:29	421085	V
19:30	421391	N
19:31	421602	V
19:32	421932	N
19:32	422128	V
19:33	422462	N
19:34	422677	V
19:34	422877	V
19:35	423246	N
19:36	423427	V
19:37	423744	N
19:37	423946	V
19:38	424280	N
19:39	424496	V
19:40	424825	N
19:40	425022	V
19:41	425300	N
19:41	425487	V
19:42	425829	N
19:43	426037	V
19:43	426214	V
19:45	426624	N
19:45	426822	V
19:46	427124	N
19:47	427328	V
19:47	427632	N
19:48	427809	V
19:49	428095	N
19:49	428291	V
19:50	428620	N
19:51	428850	V
19:52	429169	N
19:52	429359	V
19:53	429610	N
19:53	429791	V
19:54	430116	N
19:55	430325	V
19:56	430684	N
19:56	430881	V
19:57	431196	N
19:58	431386	V
19:58	431555	V
19:59	431943	N
20:00	432138	V
20:01	432419	N
20:01	432619	V
20:02	432913	N
20:03	433113	V
20:04	433450	N
20:04	433656	V
20:05	433950	N
20:05	434142	V
20:06	434426	N
20:07	434634	V
20:08	434991	N
20:08	435219	V
20:09	435524	N
20:10	435713	V
20:11	436004	N
20:11	436189	V
20:12	436480	N
20:13	436696	V
20:13	436996	N
20:14	437194	V
20:15	437497	N
20:15	437710	V
20:16	438002	N
20:17	438200	V
20:17	438462	N
20:18	438649	V
20:19	438938	N
20:19	439135	V
20:20	439456	N
20:21	439679	V
20:22	439985	N
20:22	440179	V
20:23	440450	N
20:24	440643	V
20:24	440942	N
20:25	441146	V
20:26	441477	N
20:26	441678	V
20:27	442006	N
20:28	442199	V
20:29	442471	N
20:29	442675	V
20:30	442991	N
20:31	443183	V
20:31	443465	N
20:32	443684	V
20:33	444039	N
20:34	444241	V
20:34	444525	N
20:35	444715	V
20:36	444987	N
20:36	445164	V
20:37	445417	~
20:37	445473	N
20:38	445692	V
20:38	446006	N
20:39	446215	V
20:40	446498	N
20:40	446688	V
20:41	446985	N
20:42	447177	V
20:42	447475	N
20:43	447669	V
20:44	447968	N
20:44	448165	V
20:45	448464	N
20:46	448666	V
20:47	448953	N
20:47	449142	V
20:48	449400	N
20:48	449589	V
20:49	449918	N
20:50	450140	V
20:51	450456	N
20:51	450639	V
20:52	450899	N
20:53	451104	V
20:53	451389	N
20:54	451577	V
20:55	451885	N
20:55	452076	V
20:56	452383	N
20:57	452578	V
20:58	452891	N
20:58	453097	V
20:59	453379	N
20:59	453545	V
21:00	453826	N
21:01	454032	V
21:01	454300	N
21:02	454510	V
21:03	454877	N
21:04	455064	V
21:04	455366	N
21:05	455547	V
21:06	455867	N
21:06	456072	V
21:07	456405	N
21:08	456605	V
21:08	456817	~
21:09	456925	N
21:09	457129	V
21:10	457424	N
21:11	457616	V
21:12	457935	N
21:12	458125	V
21:13	458406	N
21:13	458605	V
21:14	458994	N
21:15	459210	V
21:16	459548	N
21:17	459722	V
21:17	459990	N
21:18	460188	V
21:18	460342	V
21:19	460793	N
21:20	461003	V
21:21	461180	+
21:21	461357	N
21:22	461623	N
21:22	461878	N
21:23	462148	N
21:24	462392	N
21:24	462593	V
21:25	462881	N
21:26	463090	V
21:27	463396	N
21:27	463603	V
21:28	463797	V
21:29	464136	N
21:29	464229	+
21:29	464323	V
21:30	464588	N
21:31	464784	V
21:31	465100	N
21:32	465312	V
21:33	465628	N
21:33	465816	V
21:34	466080	N
21:35	466278	V
21:35	466532	N
21:36	466727	V
21:37	467029	N
21:37	467229	V
21:38	467528	N
21:39	467724	V
21:40	468020	N
21:40	468230	V
21:41	468516	N
21:41	468708	V
21:42	468970	N
21:43	469162	V
21:44	469452	N
21:44	469678	V
21:45	470008	N
21:46	470201	V
21:46	470485	N
21:47	470660	V
21:48	470924	N
21:48	471133	V
21:49	471456	N
21:50	471678	V
21:51	471974	N
21:51	472164	V
21:52	472454	N
21:52	472649	V
21:53	472930	N
21:54	473125	V
21:55	473411	N
21:55	473604	V
21:56	473906	N
21:57	474128	V
21:57	474420	N
21:58	474625	V
21:59	474934	N
21:59	475110	V
22:00	475272	+
22:00	475434	N
22:01	475707	N
22:02	475987	N
22:02	476276	N
22:03	476540	N
22:04	476741	A
22:05	477005	N
22:05	477125	+
22:05	477245	V
22:06	477549	N
22:07	477757	V
22:07	478068	N
22:08	478273	V
22:09	478555	N
22:09	478764	V
22:10	479117	N
22:11	479305	V
22:12	479612	N
22:12	479803	V
22:13	479987	V
22:14	480410	N
22:15	480641	V
22:16	480985	N
22:16	481204	V
22:17	481475	N
22:17	481655	V
22:18	481975	N
22:19	482191	V
22:20	482484	N
22:20	482699	V
22:21	483086	N
22:22	483288	V
22:23	483631	N
22:23	483830	V
22:24	484111	N
22:25	484300	V
22:26	484605	N
22:26	484823	V
22:27	485147	N
22:28	485347	V
22:28	485627	N
22:29	485800	V
22:30	486098	N
22:30	486302	V
22:31	486532	~
22:31	486628	N
22:32	486844	V
22:33	487122	N
22:33	487316	V
22:34	487629	N
22:35	487817	V
22:35	487968	+
22:35	488120	N
22:36	488283	~
22:36	488363	N
22:37	488580	A
22:37	488844	N
22:38	489100	N
22:39	489379	N
22:40	489639	N
22:40	489891	N
22:41	489984	+
22:41	490078	V
22:42	490335	N
22:42	490551	V
22:43	490842	N
22:44	491051	V
22:44	491363	N
22:45	491562	V
22:46	491875	N
22:46	492060	V
22:47	492381	N
22:48	492579	V
22:49	492872	N
22:49	493060	V
22:50	493363	N
22:51	493573	V
22:51	493848	N
22:52	494046	V
22:53	494346	N
22:53	494528	V
22:54	494777	N
22:54	494964	V
22:55	495285	N
22:56	495505	V
22:57	495813	N
22:57	496007	V
22:58	496274	N
22:59	496456	V
22:59	496723	N
23:00	496926	V
23:01	497219	N
23:01	497424	V
23:02	497738	N
23:03	497940	V
23:03	498086	V
23:04	498473	N
23:05	498660	V
23:05	498950	N
23:06	499131	V
23:07	499399	N
23:07	499604	V
23:08	499920	N
23:09	500137	V
23:10	500445	N
23:10	500629	V
23:11	500903	N
23:11	501086	V
23:12	501343	N
23:13	501570	V
23:14	501931	N
23:14	502143	V
23:15	502433	N
23:16	502634	V
23:16	502890	N
23:17	503086	V
23:18	503383	N
23:18	503575	V
23:19	503880	N
23:20	504073	V
23:21	504374	N
23:21	504603	V
23:22	504901	N
23:23	505096	V
23:23	505334	N
23:24	505520	V
23:25	505824	N
23:25	506025	V
23:26	506351	N
23:27	506580	V
23:27	506855	N
23:28	507040	V
23:29	507306	N
23:29	507505	V
23:30	507685	V
23:31	508040	N
23:31	508239	V
23:32	508535	N
23:33	508749	V
23:33	509009	N
23:34	509199	V
23:35	509493	V
23:35	509605	+
23:35	509717	N
23:36	509948	N
23:37	510163	N
23:37	510407	N
23:38	510686	N
23:39	510948	N
23:40	511200	N
23:40	511414	N
23:41	511629	N
23:41	511858	N
23:42	512050	N
23:42	512135	+
23:42	512220	V
23:43	512573	N
23:44	512771	V
23:45	513066	N
23:45	513253	V
23:46	513524	N
23:47	513735	V
23:47	514022	N
23:48	514214	V
23:49	514481	N
23:49	514676	V
23:50	514969	N
23:51	515172	V
23:51	515473	N
23:52	515682	V
23:53	515935	N
23:53	516110	V
23:54	516368	N
23:54	516578	V
23:55	516894	N
23:56	517103	V
23:57	517404	N
23:57	517610	V
23:58	517887	N
23:59	518060	V
23:59	518342	N
24:00	518547	V
24:01	518839	N
24:01	519047	V
24:02	519341	N
24:03	519555	V
24:04	519868	N
24:04	520063	V
24:05	520347	N
24:05	520527	V
24:06	520786	N
24:07	520988	V
24:08	521299	N
24:08	521515	V
24:09	521848	N
24:10	522036	V
24:10	522311	N
24:11	522494	V
24:12	522792	N
24:12	522995	V
24:13	523310	N
24:14	523515	V
24:15	523816	N
24:15	524020	V
24:16	524289	N
24:16	524487	V
24:17	524795	N
24:18	524976	V
24:19	525264	N
24:19	525455	V
24:20	525766	N
24:21	525996	V
24:21	526298	N
24:22	526487	V
24:23	526740	N
24:23	526924	V
24:24	527194	N
24:24	527396	V
24:25	527694	N
24:26	527918	V
24:27	528215	N
24:27	528398	V
24:28	528677	N
24:29	528887	V
24:29	529157	N
24:30	529353	V
24:31	529618	N
24:31	529824	V
24:32	530110	N
24:33	530298	V
24:33	530595	N
24:34	530806	V
24:35	531067	N
24:35	531250	V
24:36	531497	N
24:36	531693	V
24:37	532004	N
24:38	532212	V
24:39	532524	N
24:39	532710	V
24:40	532905	V
24:40	533050	+
24:41	533195	N
24:41	533426	N
24:42	533623	V
24:43	533912	N
24:43	534156	N
24:44	534389	N
24:45	534625	N
24:45	534894	N
24:46	535149	N
24:47	535385	N
24:47	535600	N
24:48	535831	N
24:49	536076	N
24:49	536316	N
24:50	536584	N
24:51	536857	N
24:51	537060	A
24:52	537318	N
24:53	537499	V
24:53	537809	N
24:54	537912	+
24:54	538010	V
24:54	538197	V
24:55	538432	V
24:56	538708	+
24:56	538840	N
24:57	539024	V
24:58	539326	N
24:58	539554	N
24:59	539817	N
24:59	539915	+
25:00	540013	V
25:00	540292	N
25:01	540472	V
25:02	540779	N
25:02	541004	V
25:03	541325	N
25:04	541523	V
25:04	541797	N
25:05	541977	V
25:06	542264	N
25:06	542442	V
25:07	542605	+
25:07	542769	N
25:08	543069	N
25:09	543337	N
25:09	543585	N
25:10	543795	A
25:11	544063	N
25:12	544337	N
25:12	544601	N
25:13	544843	N
25:14	545105	N
25:14	545224	+
25:14	545344	V
25:15	545654	N
25:16	545854	V
25:17	546235	N
25:17	546421	V
25:18	546577	+
25:18	546734	N
25:19	547019	N
25:20	547316	N
25:21	547593	N
25:21	547845	N
25:22	548093	N
25:23	548298	A
25:23	548531	A
25:24	548877	N
25:25	549126	V
25:25	549292	V
25:27	549742	N
25:27	549925	V
25:28	550323	N
25:29	550591	N
25:29	550751	V
25:30	551103	N
25:31	551298	V
25:32	551664	N
25:33	551953	N
25:33	552174	V
25:34	552471	N
25:35	552654	V
25:35	552931	N
25:36	553135	V
25:37	553328	V
25:38	553733	N
25:38	553830	+
25:38	553927	V
25:39	554238	N
25:40	554445	V
25:40	554709	N
25:41	554898	V
25:42	555244	N
25:42	555427	V
25:43	555739	N
25:44	555949	V
25:45	556309	N
25:45	556522	V
25:46	556843	N
25:47	557014	V
25:48	557303	N
25:48	557505	V
25:49	557855	N
25:50	558065	V
25:50	558246	+
25:51	558428	N
25:51	558673	N
25:52	558759	+
25:52	558845	V
25:53	559178	N
25:53	559391	V
25:54	559696	N
25:55	559903	V
25:55	560064	+
25:56	560225	N
25:56	560495	N
25:57	560597	+
25:57	560700	V
25:58	561075	N
25:59	561279	V
26:00	561636	N
26:00	561819	V
26:01	562001	+
26:01	562184	N
26:02	562526	N
26:03	562835	N
26:04	563115	N
26:04	563376	N
26:05	563646	N
26:06	563902	N
26:07	564174	N
26:07	564476	N
26:08	564765	N
26:09	565028	N
26:10	565290	N
26:10	565517	A
26:11	565874	N
26:12	565973	+
26:12	566073	V
26:13	566428	N
26:13	566636	V
26:15	567028	N
26:15	567264	V
26:16	567602	N
26:17	567819	V
26:17	567948	V
26:18	568394	N
26:19	568631	V
26:20	568957	V
26:20	569104	+
26:21	569251	N
26:21	569505	N
26:22	569758	N
26:23	569992	N
26:23	570239	N
26:24	570499	N
26:25	570754	N
26:25	570860	+
26:26	570967	V
26:26	571238	N
26:27	571449	V
26:28	571788	N
26:28	571979	V
26:29	572119	+
26:29	572260	N
26:30	572482	N
26:30	572744	N
26:31	572845	+
26:31	572946	V
26:32	573266	N
26:33	573488	V
26:34	573867	N
26:34	574040	V
26:35	574382	N
26:36	574581	V
26:36	574762	+
26:37	574943	N
26:37	575224	N
26:38	575497	N
26:39	575785	N
26:40	576035	N
26:40	576289	N
26:41	576548	N
26:42	576783	N
26:42	577016	N
26:43	577228	A
26:44	577535	N
26:44	577659	+
26:44	577784	V
26:46	578211	N
26:46	578387	V
26:47	578739	N
26:48	578917	V
26:49	579264	N
26:49	579521	V
26:50	579678	+
26:50	579835	N
26:51	580104	N
26:52	580356	N
26:52	580627	N
26:53	580854	N
26:54	581132	N
26:55	581405	N
26:55	581679	N
26:56	581957	N
26:57	582245	N
26:58	582531	N
26:58	582734	A
26:59	583082	N
27:00	583259	V
27:01	583664	N
27:01	583882	V
27:03	584303	N
27:03	584583	N
27:04	584766	V
27:05	585105	N
27:05	585325	V
27:06	585677	N
27:07	585968	N
27:08	586252	N
27:09	586525	N
27:09	586765	V
27:10	586959	V
27:11	587348	N
27:11	587431	+
27:11	587515	V
27:12	587837	N
27:13	588036	V
27:14	588384	N
27:15	588607	V
27:15	588761	+
27:15	588916	N
27:16	589183	N
27:17	589410	N
27:17	589659	N
27:18	589901	N
27:19	590185	N
27:20	590457	N
27:20	590722	N
27:21	590946	A
27:22	591296	N
27:22	591397	+
27:23	591498	V
27:24	591857	N
27:24	592038	V
27:25	592396	N
27:26	592600	V
27:26	592802	+
27:27	593004	N
27:28	593289	N
27:28	593542	N
27:29	593762	N
27:30	594013	N
27:30	594247	N
27:31	594510	N
27:32	594797	N
27:32	595040	N
27:33	595324	N
27:34	595554	N
27:34	595796	N
27:35	596061	N
27:36	596307	N
27:37	596532	A
27:38	596881	N
27:38	596989	+
27:38	597097	V
27:39	597479	N
27:40	597678	V
27:41	598039	N
27:41	598256	V
27:42	598407	+
27:42	598558	N
27:43	598863	N
27:44	599192	N
27:45	599491	N
27:45	599602	+
27:45	599714	V
27:46	599992	N
27:47	600193	V
27:47	600452	N
27:48	600653	V
27:49	601063	N
27:50	601266	V
27:50	601466	+
27:51	601667	N
27:52	601954	N
27:52	602239	N
27:53	602450	A
27:54	602726	N
27:54	602931	V
27:55	603345	N
27:56	603544	V
27:57	603938	N
27:58	604224	N
27:58	604400	V
27:59	604575	V
28:00	604960	N
28:01	605186	V
28:02	605559	N
28:02	605873	N
28:03	606138	N
28:04	606362	N
28:05	606654	N
28:05	606860	V
28:06	607288	N
28:07	607486	V
28:08	607873	N
28:09	608176	N
28:10	608472	N
28:10	608731	N
28:11	608969	N
28:12	609168	A
28:13	609510	N
28:13	609708	V
28:14	610114	N
28:15	610321	V
28:16	610684	N
28:17	610943	N
28:17	611223	N
28:18	611507	N
28:19	611799	N
28:20	612078	N
28:21	612363	N
28:21	612636	N
28:22	612903	N
28:23	613161	N
28:23	613403	N
28:24	613650	N
28:25	613889	N
28:25	614114	N
28:26	614421	N
28:27	614650	V
28:28	615031	N
28:28	615212	V
28:29	615545	N
28:30	615798	N
28:31	616036	V
28:32	616351	N
28:32	616631	N
28:33	616815	V
28:34	617127	N
28:34	617361	V
28:35	617646	N
28:36	617906	N
28:36	618102	V
28:37	618253	V
28:38	618631	N
28:39	618850	V
28:39	619181	N
28:40	619438	N
28:41	619674	N
28:41	619886	N
28:42	620138	N
28:43	620421	N
28:44	620693	N
28:44	620981	N
28:45	621196	A
28:46	621474	N
28:47	621730	N
28:47	621993	N
28:48	622258	N
28:49	622522	N
28:49	622748	N
28:50	623102	N
28:51	623314	V
28:52	623708	N
28:53	623900	V
28:53	624236	N
28:54	624501	N
28:55	624776	N
28:56	625017	N
28:57	625359	N
28:57	625468	+
28:57	625578	V
28:58	625940	N
28:59	626111	V
29:00	626472	N
29:00	626685	V
29:01	626875	+
29:01	627066	N
29:02	627352	N
29:03	627626	N
29:04	627857	A
29:04	628158	N
29:05	628264	+
29:05	628371	V
29:06	628678	N
29:06	628879	V
29:07	629170	N
29:08	629380	V
29:09	629775	N
29:09	629977	V
29:10	630287	N
29:11	630469	V
29:12	630762	N
29:12	630945	V
29:13	631107	+
29:13	631269	N
29:14	631558	N
29:15	631804	N
29:15	632069	N
29:16	632305	N
29:17	632555	N
29:17	632816	N
29:18	633052	N
29:19	633314	N
29:19	633585	N
29:20	633871	N
29:21	634140	N
29:22	634370	A
29:23	634733	N
29:23	634923	V
29:24	635279	N
29:25	635584	N
29:26	635907	N
29:27	636211	N
29:27	636479	N
29:28	636590	+
29:28	636702	V
29:29	636995	N
29:29	637191	V
29:30	637549	N
29:31	637753	V
29:32	638125	N
29:33	638346	V
29:33	638511	+
29:34	638677	N
29:34	638952	N
29:35	639202	N
29:36	639434	N
29:36	639679	N
29:37	639921	N
29:38	640213	N
29:38	640337	+
29:39	640461	V
29:40	640806	N
29:40	640995	V
29:41	641291	N
29:41	641474	V
29:42	641835	N
29:43	642077	V
29:44	642249	+
29:44	642421	N
29:45	642690	N
29:45	642809	~
29:45	642945	N
29:46	643198	N
29:47	643456	N
29:48	643711	N
29:48	643959	N
29:49	644208	N
29:50	644466	N
29:50	644744	N
29:51	645027	N
29:51	645116	~
29:52	645277	N
29:53	645522	N
29:53	645743	N
29:54	645988	N
29:55	646206	V
29:55	646510	N
29:56	646799	N
29:57	647074	N
29:58	647299	V
29:58	647545	N
29:59	647726	V
30:00	648089	N
30:00	648356	N
30:01	648629	N
30:02	648899	N
30:03	649161	N
30:03	649242	~
30:03	649408	N
30:04	649664	N
30:05	649927	N
