0:00	159	N
0:01	415	N
0:01	686	N
0:02	905	N
0:03	1189	N
0:03	1422	N
0:04	1621	N
0:05	1965	N
0:06	2236	N
0:06	2495	N
0:07	2721	N
0:08	2955	N
0:08	3197	N
0:09	3470	N
0:10	3798	N
0:11	4109	N
0:12	4353	N
0:12	4591	N
0:13	4847	N
0:13	4989	N
0:14	5220	N
0:15	5477	N
0:15	5688	N
0:16	5919	N
0:16	6102	N
0:17	6391	N
0:18	6636	N
0:18	6836	N
0:19	7069	N
0:20	7323	N
0:21	7614	N
0:21	7819	N
0:22	8071	N
0:23	8303	N
0:23	8514	N
0:24	8667	N
0:24	8922	N
0:25	9116	N
0:25	9349	N
0:26	9642	N
0:27	10008	N
0:28	10267	N
0:29	10521	N
0:29	10771	N
0:30	11043	N
0:31	11300	N
0:31	11474	N
0:32	11800	N
0:33	12007	N
0:34	12252	N
0:34	12454	N
0:35	12690	N
0:35	12928	N
0:36	13222	N
0:37	13550	N
0:38	13800	N
0:38	14021	N
0:39	14349	N
0:40	14615	N
0:41	14866	N
0:41	15014	N
0:42	15241	N
0:42	15470	N
0:43	15692	N
0:44	15895	N
0:44	16151	N
0:45	16407	N
0:46	16569	N
0:46	16813	N
0:47	17042	N
0:47	17271	N
0:48	17425	N
0:48	17553	a
0:49	17775	N
0:49	17958	N
0:50	18261	N
0:51	18428	N
0:51	18681	N
0:52	18924	N
0:52	19075	N
0:53	19300	N
0:54	19591	N
0:55	19825	N
0:55	20050	N
0:56	20271	N
0:57	20584	N
0:58	20907	N
0:58	21167	N
0:59	21406	N
0:59	21561	N
1:00	21744	N
1:01	21963	N
1:01	22296	N
1:02	22597	N
1:03	22754	N
1:03	22914	N
1:04	23153	N
1:05	23502	N
1:05	23658	N
1:06	23872	N
1:07	24191	N
1:07	24396	N
1:08	24641	N
1:09	24871	N
1:09	25118	N
1:10	25360	N
1:11	25623	N
1:11	25857	N
1:12	26138	N
1:13	26362	N
1:13	26610	N
1:14	26803	N
1:15	27042	N
1:15	27257	N
1:16	27443	N
1:16	27598	N
1:17	27878	N
1:18	28128	N
1:18	28377	N
1:19	28617	N
1:20	28915	N
1:20	29153	N
1:21	29443	N
1:22	29712	N
1:23	29939	N
1:23	30171	N
1:24	30314	N
1:24	30577	N
1:25	30780	N
1:26	31022	N
1:26	31305	N
1:28	31720	N
1:28	32030	N
1:29	32257	N
1:30	32429	N
1:30	32628	N
1:31	32861	N
1:32	33177	N
1:32	33362	N
1:33	33648	N
1:34	33894	N
1:35	34202	N
1:35	34351	N
1:36	34624	N
1:36	34871	N
1:37	35019	N
1:37	35221	N
1:38	35375	N
1:38	35622	N
1:39	35921	N
1:40	36255	N
1:41	36489	N
1:41	36684	N
1:42	37033	N
1:43	37199	N
1:43	37340	N
1:44	37584	N
1:45	37824	N
1:45	38074	N
1:46	38318	N
1:47	38583	N
1:47	38865	N
1:48	39162	N
1:49	39450	N
1:50	39783	N
1:51	40080	N
1:51	40305	N
1:52	40607	N
1:53	40811	N
1:54	41040	N
1:54	41260	N
1:55	41522	N
1:55	41695	N
1:56	41925	N
1:57	42168	N
1:57	42415	N
1:58	42564	N
1:58	42700	N
1:59	43022	N
2:00	43242	N
2:00	43473	N
2:01	43616	N
2:02	43934	N
2:03	44333	N
2:04	44649	N
2:04	44920	N
2:05	45201	N
2:06	45408	N
2:06	45594	N
2:07	45770	N
2:07	45986	N
2:08	46198	N
2:09	46460	N
2:09	46752	N
2:10	47002	N
2:11	47284	N
2:11	47500	N
2:12	47749	N
2:13	47953	N
2:13	48197	N
2:14	48416	N
2:15	48665	N
2:15	48918	N
2:16	49137	N
2:17	49376	N
2:17	49559	N
2:18	49705	N
2:19	50081	N
2:19	50332	N
2:20	50640	N
2:21	50929	N
2:22	51250	N
2:23	51501	N
2:23	51685	N
2:24	51913	N
2:24	52141	N
2:25	52405	N
2:26	52666	N
2:26	52911	N
2:27	53237	N
2:28	53451	N
2:28	53620	N
2:29	53846	N
2:30	54085	N
2:31	54409	N
2:31	54658	N
2:32	54885	N
2:33	55111	N
2:33	55261	N
2:34	55519	N
2:34	55680	N
2:35	56045	N
2:36	56246	N
2:36	56447	N
2:37	56690	N
2:38	56952	N
2:38	57163	N
2:39	57321	N
2:40	57732	N
2:41	58034	N
2:41	58261	N
2:42	58447	N
2:42	58578	N
2:43	58809	N
2:44	59083	N
2:44	59332	N
2:45	59593	N
2:46	59848	N
2:46	60079	N
2:47	60338	N
2:48	60587	N
2:49	60896	N
2:49	61145	N
2:50	61395	N
2:51	61628	N
2:51	61858	N
2:52	62073	N
2:53	62314	N
2:53	62465	N
2:54	62702	N
2:54	62922	N
2:55	63166	N
2:55	63346	N
2:56	63616	N
2:57	63829	N
2:58	64084	N
2:58	64308	N
2:59	64521	N
2:59	64689	N
3:00	64927	N
3:00	65120	N
3:01	65335	N
3:02	65634	N
3:03	65949	N
3:03	66197	N
3:05	66634	N
3:05	66808	N
3:06	67039	N
3:06	67252	N
3:07	67523	N
3:08	67772	N
3:08	68008	N
3:09	68298	N
3:10	68571	N
3:11	68946	N
3:12	69177	N
3:12	69477	N
3:13	69654	N
3:14	69888	N
3:14	70171	N
3:15	70392	N
3:15	70536	N
3:16	70670	N
3:17	71068	N
3:17	71279	N
3:18	71479	N
3:19	71816	N
3:20	72051	N
3:20	72203	N
3:21	72484	N
3:22	72728	N
3:22	72967	N
3:23	73253	N
3:24	73526	N
3:24	73722	N
3:25	74049	N
3:26	74479	N
3:27	74702	N
3:28	74975	N
3:28	75202	N
3:29	75427	N
3:30	75711	N
3:30	75941	N
3:31	76076	a
3:31	76218	N
3:32	76437	N
3:33	76739	N
3:33	76969	N
3:34	77327	N
3:35	77516	N
3:35	77733	N
3:36	77948	N
3:36	78099	N
3:37	78339	N
3:38	78493	N
3:38	78716	N
3:39	78952	N
3:39	79186	N
3:40	79429	N
3:41	79661	N
3:41	79879	N
3:42	80247	N
3:43	80554	N
3:44	80841	N
3:45	81116	N
3:46	81390	N
3:46	81678	N
3:47	81928	N
3:48	82166	N
3:48	82417	N
3:49	82736	N
3:50	83035	N
3:51	83308	N
3:52	83616	N
3:52	83847	N
3:53	84154	N
3:54	84452	N
3:55	84722	N
3:55	84927	N
3:56	85118	N
3:57	85325	N
3:57	85578	N
3:58	85840	N
3:58	86003	N
3:59	86219	N
3:59	86389	N
4:00	86614	N
4:01	86865	N
4:01	87110	N
4:02	87358	N
4:03	87543	N
4:03	87766	N
4:04	87992	N
4:05	88205	N
4:05	88361	N
4:06	88587	N
4:06	88727	N
4:07	89008	N
4:07	89272	N
4:08	89497	N
4:09	89772	N
4:10	90050	N
4:10	90337	N
4:11	90610	N
4:12	90841	N
4:12	91046	N
4:13	91283	N
4:14	91519	N
4:14	91754	N
4:15	92021	N
4:16	92393	N
4:17	92591	N
4:17	92825	N
4:18	93049	N
4:18	93239	N
4:19	93376	N
4:20	93605	N
4:20	93959	N
4:21	94150	N
4:22	94392	N
4:22	94645	N
4:23	94874	N
4:24	95112	N
4:24	95248	N
4:25	95600	N
4:26	95835	N
4:27	96165	N
4:27	96468	N
4:28	96744	N
4:29	96904	N
4:29	97120	N
4:30	97351	N
4:31	97567	N
4:31	97805	N
4:32	98213	N
4:33	98518	N
4:34	98724	N
4:35	99013	N
4:35	99341	N
4:36	99612	N
4:37	99897	N
4:38	100144	N
4:38	100415	N
4:39	100735	N
4:40	101067	N
4:41	101324	N
4:42	101520	N
4:42	101754	N
4:43	102047	N
4:44	102307	N
4:44	102524	N
4:45	102665	N
4:45	102907	N
4:46	103189	N
4:47	103437	N
4:47	103660	N
4:48	103879	N
4:49	104113	N
4:49	104336	N
4:50	104597	N
4:51	104957	N
4:52	105271	N
4:53	105486	N
4:53	105826	N
4:54	106048	N
4:54	106183	N
4:55	106433	N
4:56	106636	N
4:57	106947	N
4:58	107299	N
4:59	107644	N
4:59	107974	N
5:00	108172	N
5:01	108444	N
5:01	108686	N
5:02	108938	N
5:03	109184	N
5:04	109461	N
5:04	109612	a
5:05	109832	N
5:05	110139	N
5:06	110323	N
5:07	110559	N
5:07	110781	N
5:08	111100	N
5:09	111380	N
5:10	111633	N
5:10	111893	N
5:11	112122	N
5:12	112444	N
5:12	112679	N
5:14	113109	N
5:14	113368	N
5:15	113522	N
5:16	113774	N
5:16	114076	N
5:17	114390	N
5:18	114687	N
5:19	114900	N
5:19	115122	N
5:20	115396	N
5:21	115578	N
5:21	115846	N
5:22	116059	N
5:23	116294	N
5:23	116531	N
5:24	116703	N
5:24	116890	N
5:25	117149	N
5:25	117306	N
5:26	117477	N
5:27	117901	N
5:28	118142	N
5:28	118302	N
5:29	118544	N
5:29	118729	N
5:30	118973	N
5:31	119274	N
5:32	119526	N
5:32	119874	N
5:34	120426	N
5:35	120672	N
5:35	120918	N
5:36	121142	N
5:37	121434	N
5:38	121694	N
5:38	121927	N
5:39	122203	N
5:40	122427	N
5:40	122634	N
5:41	122845	N
5:42	123242	N
5:43	123550	N
5:43	123795	N
5:44	124038	N
5:45	124258	N
5:45	124504	N
5:46	124737	N
5:46	124883	N
5:47	125146	N
5:48	125417	N
5:49	125777	N
5:50	126012	N
5:50	126208	N
5:51	126471	N
5:52	126765	N
5:52	126966	N
5:53	127242	N
5:54	127459	N
5:54	127672	N
5:55	127960	N
5:56	128182	N
5:56	128407	N
5:57	128551	N
5:57	128793	N
5:58	129060	N
5:59	129253	N
5:59	129523	N
6:00	129757	N
6:01	130092	N
6:02	130406	N
6:02	130577	N
6:03	130830	N
6:03	130989	N
6:04	131218	N
6:05	131530	N
6:06	131793	N
6:06	132005	N
6:07	132238	N
6:08	132558	N
6:08	132815	N
6:09	133160	N
6:10	133427	N
6:11	133790	N
6:12	134059	N
6:13	134363	N
6:13	134606	N
6:14	134842	N
6:15	135090	N
6:15	135354	N
6:16	135608	N
6:17	135869	N
6:18	136091	N
6:18	136226	+
6:21	137429	j
6:23	138167	j
6:24	138552	+
6:25	138701	N
6:26	139293	j
6:28	139691	N
6:29	140255	N
6:30	140744	N
6:31	140913	a
6:32	141441	N
6:34	141962	N
6:35	142435	N
6:36	142889	N
6:37	143128	V
6:38	143374	N
6:39	143823	N
6:40	144324	N
6:42	144747	N
6:43	145119	V
6:44	145575	N
6:45	146018	N
6:46	146447	N
6:47	146863	N
6:49	147274	N
6:50	147691	N
6:51	148133	N
6:52	148597	N
6:53	149026	N
6:55	149469	N
6:56	149923	N
6:57	150413	N
6:59	150896	N
7:00	151348	N
7:01	151785	N
7:02	152229	N
7:04	152704	N
7:05	153147	N
7:06	153572	N
7:07	153924	V
7:08	154251	N
7:08	154408	a
7:10	154954	N
7:11	155188	a
7:12	155635	N
7:14	156285	N
7:15	156749	N
7:16	157166	V
7:17	157449	N
7:18	157876	N
7:19	158083	a
7:20	158564	N
7:22	159282	N
7:22	159364	x
7:24	159951	N
7:24	160024	x
7:26	160609	N
7:26	160693	x
7:28	161291	N
7:29	161716	N
7:29	161905	a
7:31	162372	N
7:32	162810	N
7:33	163294	N
7:34	163789	N
7:36	164236	N
7:37	164702	N
7:38	165158	N
7:38	165235	x
7:39	165508	V
7:40	165879	N
7:41	166315	N
7:42	166407	x
7:43	166975	N
7:45	167426	N
7:46	167882	N
7:47	168323	N
7:48	168513	a
7:49	168989	N
7:50	169430	N
7:51	169791	V
7:52	170145	N
7:53	170580	N
7:55	171037	N
7:56	171500	N
7:57	171815	+
7:57	171883	V
7:57	172064	a
7:58	172235	a
7:59	172463	N
7:59	172633	a
7:59	172769	a
8:00	173007	N
8:01	173187	N
8:01	173366	N
8:02	173542	N
8:02	173698	N
8:03	173880	N
8:03	174137	N
8:04	174321	a
8:04	174560	N
8:05	174741	N
8:06	174974	N
8:06	175168	N
8:07	175356	N
8:07	175545	N
8:08	175766	N
8:09	176067	N
8:09	176257	N
8:10	176524	N
8:11	176795	N
8:11	177056	N
8:12	177213	N
8:12	177426	N
8:13	177611	N
8:14	177867	N
8:14	178141	N
8:15	178302	N
8:15	178502	N
8:16	178802	N
8:17	179023	N
8:17	179174	N
8:18	179435	N
8:18	179615	N
8:19	179869	N
8:20	180064	N
8:20	180280	N
8:21	180452	N
8:21	180617	N
8:22	180760	N
8:22	180962	N
8:23	181177	N
8:23	181439	N
8:24	181582	a
8:24	181732	a
8:25	181932	N
8:26	182162	N
8:27	182593	N
8:28	182933	N
8:29	183243	N
8:29	183388	a
8:30	183686	N
8:30	183888	N
8:31	184030	N
8:31	184280	N
8:32	184431	N
8:32	184600	N
8:33	184755	N
8:34	185068	+
8:34	185330	N
8:36	186038	j
8:37	186377	N
8:39	187101	j
8:40	187323	A
8:42	187984	j
8:42	188183	A
8:43	188387	+
8:43	188577	N
8:45	189064	N
8:46	189391	V
8:46	189598	J
8:47	190004	N
8:47	190075	x
8:49	190669	N
8:49	190744	x
8:51	191370	N
8:51	191455	x
8:53	192066	N
8:53	192138	x
8:55	192716	N
8:55	192789	x
8:57	193402	N
8:57	193490	x
8:59	194092	N
8:59	194173	x
9:00	194741	N
9:01	194810	x
9:02	195421	N
9:03	195503	x
9:04	196137	N
9:05	196227	x
9:06	196801	N
9:07	197209	N
9:08	197544	V
9:09	197816	N
9:10	198355	N
9:11	198452	x
9:12	199034	N
9:14	199458	N
9:14	199610	+
9:14	199762	V
9:16	200330	N
9:17	200757	N
9:18	201061	V
9:19	201583	N
9:21	202008	N
9:22	202371	V
9:23	202852	N
9:24	203263	N
9:25	203608	V
9:26	204087	N
9:28	204540	N
9:29	204885	V
9:30	205370	N
9:31	205775	N
9:32	206135	V
9:34	206641	N
9:35	207088	N
9:36	207431	V
9:36	207663	+
9:37	207895	N
9:38	208317	N
9:39	208519	a
9:40	209042	N
9:41	209465	N
9:42	209794	V
9:43	210145	N
9:44	210584	N
9:45	210928	V
9:46	211225	N
9:48	211766	N
9:49	212199	N
9:50	212655	N
9:51	212989	V
9:52	213276	N
9:53	213804	N
9:55	214230	N
9:56	214662	N
9:57	214992	V
9:58	215293	N
9:59	215822	N
10:00	216242	N
10:01	216670	N
10:02	217010	V
10:03	217311	N
10:05	217869	N
10:06	218323	N
10:07	218749	N
10:08	218912	+
10:08	219075	V
10:10	219660	N
10:11	220097	N
10:12	220401	V
10:13	220924	N
10:14	221339	N
10:15	221710	V
10:17	222188	N
10:18	222606	N
10:19	222926	V
10:19	223189	+
10:20	223453	N
10:21	223914	N
10:23	224368	N
10:24	224804	N
10:25	225253	N
10:26	225703	N
10:28	226170	N
10:29	226620	N
10:30	227029	N
10:31	227447	N
10:33	227896	N
10:34	228330	N
10:35	228657	V
10:36	229167	N
10:37	229369	a
10:38	229817	N
10:39	230263	N
10:40	230709	N
10:41	230877	+
10:41	231045	V
10:43	231545	N
10:44	231987	N
10:45	232307	V
10:46	232858	N
10:48	233284	N
10:48	233617	V
10:50	234099	N
10:51	234548	N
10:52	234912	V
10:53	235391	N
10:55	235806	N
10:55	236148	V
10:56	236273	+
10:56	236399	N
10:58	236945	N
10:59	237390	N
11:00	237799	N
11:01	237968	+
11:01	238137	V
11:02	238660	N
11:04	239116	N
11:05	239450	V
11:06	239951	N
11:07	240350	N
11:08	240714	V
11:09	241191	N
11:11	241638	N
11:12	241963	V
11:13	242448	N
11:14	242874	N
11:15	243245	V
11:17	243730	N
11:18	244160	N
11:19	244481	V
11:20	244990	N
11:21	245435	N
11:22	245800	V
11:24	246257	N
11:25	246667	N
11:26	247006	V
11:27	247495	N
11:28	247937	N
11:29	248278	V
11:30	248718	N
11:32	249130	N
11:32	249471	V
11:34	249950	N
11:35	250389	N
11:36	250699	V
11:37	251215	N
11:39	251646	N
11:39	251989	V
11:41	252516	N
11:42	252926	N
11:43	253243	V
11:44	253758	N
11:46	254176	N
11:47	254549	V
11:48	255017	N
11:49	255444	N
11:50	255762	V
11:52	256334	N
11:53	256765	N
11:54	257082	V
11:55	257584	N
11:56	258016	N
11:57	258357	V
11:58	258839	N
12:00	259259	N
12:01	259567	V
12:02	260033	N
12:03	260479	N
12:04	260809	V
12:05	261287	N
12:06	261710	N
12:07	262016	V
12:09	262534	N
12:10	262980	N
12:11	263297	V
12:12	263803	N
12:13	264212	N
12:14	264544	V
12:16	265070	N
12:17	265494	N
12:18	265808	V
12:18	266038	+
12:19	266268	N
12:20	266466	a
12:21	266921	N
12:22	267359	N
12:23	267699	V
12:24	268141	N
12:25	268326	a
12:26	268799	N
12:27	269236	N
12:29	269668	N
12:29	269998	V
12:31	270495	N
12:32	270923	N
12:33	271243	V
12:34	271758	N
12:35	271956	a
12:36	272389	N
12:37	272794	N
12:38	273218	N
12:39	273565	V
12:41	274048	N
12:41	274232	a
12:43	274689	N
12:44	275106	N
12:45	275565	N
12:46	275888	V
12:47	276441	N
12:49	276870	N
12:50	277545	N
12:52	277995	N
12:53	278437	N
12:54	278733	V
12:55	279247	N
12:56	279691	N
12:57	279890	a
12:58	280382	N
13:00	280812	N
13:01	281234	N
13:01	281500	V
13:03	281926	N
13:04	282391	N
13:05	282692	V
13:05	282880	N
13:06	283245	N
13:08	283680	N
13:08	283885	a
13:09	284380	N
13:11	284820	N
13:12	285250	N
13:13	285554	V
13:14	286098	N
13:15	286557	N
13:17	286998	N
13:18	287288	V
13:19	287834	N
13:20	288256	N
13:21	288689	N
13:22	289059	V
13:24	289538	N
13:25	289951	N
13:26	290383	N
13:27	290750	V
13:28	291015	N
13:29	291530	N
13:30	291952	N
13:32	292375	N
13:32	292545	+
13:33	292715	V
13:34	293239	N
13:35	293660	N
13:36	293983	V
13:37	294470	N
13:39	294904	N
13:40	295238	V
13:41	295730	N
13:42	296155	N
13:43	296454	V
13:44	296960	N
13:46	297409	N
13:47	297735	V
13:48	298237	N
13:49	298656	N
13:50	298977	V
13:52	299527	N
13:53	299971	N
13:54	300291	V
13:55	300782	N
13:56	301206	N
13:57	301560	V
13:59	302041	N
14:00	302446	N
14:01	302782	V
14:02	303232	N
14:03	303671	N
14:04	304022	V
14:05	304484	N
14:06	304888	N
14:07	305226	V
14:09	305742	N
14:10	306167	N
14:11	306517	V
14:12	306992	N
14:13	307406	N
14:14	307738	V
14:16	308258	N
14:17	308676	N
14:18	309000	V
14:19	309454	N
14:20	309891	N
14:21	310228	V
14:23	310716	N
14:24	311129	N
14:25	311449	V
14:26	311914	N
14:27	312360	N
14:28	312701	V
14:29	313190	N
14:31	313611	N
14:32	313924	V
14:33	314419	N
14:34	314850	N
14:35	315187	V
14:36	315630	N
14:37	316048	N
14:38	316362	V
14:40	316875	N
14:41	317300	N
14:42	317608	V
14:43	318116	N
14:44	318545	N
14:45	318872	V
14:47	319419	N
14:48	319820	N
14:49	320119	V
14:50	320625	N
14:51	321060	N
14:52	321386	V
14:54	321877	N
14:55	322286	N
14:56	322600	V
14:57	323109	N
14:58	323552	N
14:59	323868	V
15:00	324358	N
15:02	324781	N
15:03	325107	V
15:04	325609	N
15:05	326048	N
15:06	326330	V
15:07	326811	N
15:08	327236	N
15:09	327584	V
15:11	328046	N
15:12	328471	N
15:13	328731	V
15:13	328999	+
15:14	329268	N
15:15	329718	N
15:17	330154	N
15:17	330443	V
15:19	330966	N
15:20	331401	N
15:21	331841	N
15:22	332157	V
15:24	332694	N
15:25	333099	N
15:26	333497	N
15:27	333831	V
15:28	334357	N
15:29	334768	N
15:30	335155	N
15:31	335487	V
15:33	335987	N
15:34	336430	N
15:35	336848	N
15:36	337158	V
15:37	337666	N
15:39	338121	N
15:40	338577	N
15:41	338860	V
15:41	339049	N
15:42	339408	N
15:43	339837	N
15:45	340278	N
15:46	340587	V
15:47	341147	N
15:48	341549	N
15:49	341955	N
15:50	342286	V
15:52	342806	N
15:53	343225	N
15:54	343645	N
15:55	343959	V
15:56	344465	N
15:58	344909	N
15:59	345347	N
16:00	345645	V
16:01	346155	N
16:02	346591	N
16:03	347019	N
16:04	347354	V
16:06	347849	N
16:07	348266	N
16:08	348680	N
16:09	349037	V
16:11	349562	N
16:12	349992	N
16:13	350391	N
16:14	350741	V
16:15	351242	N
16:16	351683	N
16:17	352024	V
16:19	352463	N
16:19	352653	a
16:20	353128	N
16:22	353573	N
16:22	353743	+
16:23	353913	V
16:24	354409	N
16:25	354832	N
16:26	355135	V
16:27	355662	N
16:29	356074	N
16:30	356438	V
16:31	356839	N
16:32	357272	N
16:33	357619	V
16:34	357861	+
16:34	358104	N
16:35	358311	a
16:36	358744	N
16:37	359137	N
16:38	359496	V
16:39	359960	N
16:41	360398	N
16:41	360708	V
16:43	361175	N
16:44	361606	N
16:45	361983	N
16:45	362159	A
16:47	362657	N
16:48	363047	N
16:49	363392	V
16:50	363811	N
16:51	364218	N
16:52	364621	N
16:53	364992	N
16:54	365180	+
16:54	365369	V
16:56	365761	N
16:57	366179	N
16:58	366547	V
16:59	367003	N
17:00	367394	N
17:01	367759	V
17:02	368222	N
17:04	368650	N
17:05	369037	V
17:06	369472	N
17:07	369878	N
17:08	370270	V
17:09	370726	N
17:10	371155	N
17:12	371525	V
17:13	371944	N
17:14	372356	N
17:15	372754	V
17:16	373185	N
17:17	373619	N
17:18	373957	V
17:19	374067	+
17:19	374177	N
17:20	374663	N
17:21	375112	N
17:23	375540	N
17:23	375711	+
17:24	375882	V
17:25	376332	N
17:26	376767	N
17:27	377094	V
17:28	377589	N
17:30	378021	N
17:30	378342	V
17:32	378794	N
17:33	379258	N
17:34	379595	V
17:35	380080	N
17:36	380490	N
17:37	380832	V
17:39	381280	N
17:40	381714	N
17:41	382092	V
17:42	382490	N
17:43	382904	N
17:44	383251	V
17:45	383746	N
17:47	384167	N
17:48	384525	V
17:49	384958	N
17:50	385389	N
17:51	385741	V
17:52	386248	N
17:54	386657	N
17:54	386998	V
17:55	387112	+
17:55	387227	N
17:57	387728	N
17:58	388178	N
17:59	388600	N
17:59	388776	+
18:00	388952	V
18:01	389408	N
18:02	389855	N
18:03	390213	V
18:05	390679	N
18:06	391065	N
18:07	391429	V
18:07	391637	+
18:08	391845	N
18:09	392041	a
18:09	392172	a
18:10	392544	N
18:11	392959	N
18:12	393128	+
18:12	393297	V
18:13	393762	N
18:15	394211	N
18:16	394567	V
18:17	395070	N
18:17	395181	~
18:18	395486	N
18:18	395610	~
18:19	395818	V
18:20	396037	+
18:20	396256	N
18:21	396465	~
18:21	396657	N
18:22	396840	A
18:23	397228	~
18:23	397302	N
18:24	397651	N
18:25	397821	A
18:26	398276	N
18:26	398477	a
18:28	398894	j
18:29	399341	N
18:30	399700	N
18:31	400064	N
18:32	400407	N
18:32	400593	A
18:33	400755	A
18:34	401105	N
18:35	401501	N
18:36	401890	V
18:37	402356	N
18:39	403077	N
18:41	403582	N
18:42	404033	N
18:43	404477	N
18:44	404944	N
18:46	405438	N
18:46	405626	a
18:48	406176	j
18:48	406381	A
18:50	406910	N
18:52	407614	N
18:53	407942	N
18:54	408286	N
18:55	408677	N
18:56	409085	V
18:57	409554	N
18:58	410002	N
19:00	410424	N
19:01	410832	N
19:02	411249	N
19:03	411699	N
19:04	412129	N
19:05	412498	V
19:06	412698	A
19:06	412853	A
19:07	413184	N
19:08	413617	N
19:09	413997	V
19:10	414228	A
19:12	414738	N
19:13	415145	N
19:14	415563	N
19:15	415953	V
19:16	416444	N
19:17	416851	N
19:18	417225	V
19:19	417433	A
19:19	417590	A
19:20	417934	N
19:22	418367	N
19:23	418752	V
19:24	419208	N
19:24	419396	a
19:26	419870	N
19:27	420307	N
19:28	420493	+
19:28	420680	V
19:29	421139	N
19:30	421548	N
19:31	421903	V
19:33	422376	N
19:34	422822	N
19:35	423171	V
19:36	423628	N
19:37	424032	N
19:38	424416	V
19:39	424535	+
19:39	424654	A
19:40	424806	A
19:41	425184	N
19:42	425599	N
19:43	426006	N
19:44	426424	N
19:45	426815	V
19:46	427319	N
19:47	427509	a
19:47	427642	a
19:48	427984	N
19:49	428397	N
19:51	428761	V
19:52	429248	N
19:53	429686	N
19:54	429869	a
19:55	430324	N
19:56	430753	N
19:57	431126	V
19:58	431612	N
20:00	432034	N
20:01	432365	V
20:02	432858	N
20:03	433294	N
20:04	433737	N
20:05	433928	a
20:06	434381	N
20:07	434791	N
20:08	435151	V
20:10	435648	N
20:11	436076	N
20:12	436484	N
20:13	436829	V
20:14	437306	N
20:15	437516	a
20:15	437659	a
20:16	438033	N
20:17	438439	N
20:19	438865	N
20:19	439198	V
20:20	439456	A
20:21	439621	A
20:22	440003	N
20:23	440416	V
20:24	440853	N
20:25	441259	N
20:26	441643	V
20:28	442124	N
20:28	442309	a
20:29	442772	N
20:31	443190	N
20:32	443545	V
20:33	444035	N
20:34	444465	N
20:35	444841	V
20:36	445050	A
20:37	445526	N
20:38	445968	N
20:40	446410	N
20:41	446776	V
20:41	447007	A
20:43	447509	N
20:44	447923	N
20:45	448365	N
20:46	448732	V
20:47	449222	N
20:48	449625	N
20:49	449984	V
20:51	450485	N
20:52	450924	N
20:53	451119	a
20:53	451254	a
20:54	451605	N
20:55	452001	N
20:56	452194	a
20:57	452707	N
20:58	453152	N
20:59	453468	V
21:01	453982	N
21:02	454413	N
21:03	454842	N
21:04	455047	a
21:05	455555	N
21:06	455966	N
21:07	456272	V
21:08	456801	N
21:10	457246	N
21:11	457664	N
21:12	458008	V
21:13	458470	N
21:14	458666	a
21:15	459140	N
21:16	459587	N
21:17	459996	N
21:18	460334	V
21:19	460781	N
21:21	461232	N
21:22	461555	V
21:23	462069	N
21:23	462156	x
21:25	462721	N
21:26	463131	N
21:27	463578	N
21:28	463943	V
21:30	464405	N
21:30	464575	a
21:31	465065	N
21:33	465497	N
21:34	465932	N
21:34	466112	+
21:35	466292	V
21:36	466743	N
21:37	467152	N
21:38	467477	V
21:39	467985	N
21:41	468405	N
21:42	468740	V
21:43	469202	N
21:44	469600	N
21:45	469974	V
21:46	470428	N
21:47	470853	N
21:48	471157	V
21:50	471660	N
21:51	472092	N
21:52	472470	V
21:53	472950	N
21:54	473365	N
21:55	473705	V
21:57	474195	N
21:58	474627	N
21:59	475002	V
22:00	475438	N
22:01	475867	N
22:02	476225	V
22:04	476714	N
22:05	477136	N
22:06	477496	V
22:07	477922	N
22:08	478354	N
22:09	478729	V
22:11	479167	N
22:12	479595	N
22:13	479922	V
22:14	480401	N
22:15	480826	N
22:16	481219	V
22:18	481689	N
22:19	482103	N
22:20	482456	V
22:21	482976	N
22:22	483403	N
22:23	483771	V
22:24	484198	N
22:26	484620	N
22:27	484974	V
22:28	485490	N
22:29	485887	N
22:30	486238	V
22:31	486689	N
22:33	487118	N
22:34	487494	V
22:35	487965	N
22:36	488365	N
22:37	488709	V
22:38	489202	N
22:40	489656	N
22:41	490001	V
22:42	490461	N
22:43	490878	N
22:44	491225	V
22:45	491706	N
22:47	492124	N
22:48	492495	V
22:48	492708	+
22:49	492921	N
22:50	493374	N
22:51	493856	N
22:53	494285	N
22:54	494706	N
22:55	495133	N
22:56	495555	N
22:57	496016	N
22:59	496451	N
23:00	496859	N
23:01	497264	N
23:02	497709	N
23:03	498141	N
23:04	498584	N
23:06	499000	N
23:07	499410	N
23:08	499826	N
23:09	500283	N
23:10	500724	N
23:12	501149	N
23:13	501572	N
23:14	502006	N
23:15	502449	N
23:16	502887	N
23:18	503304	N
23:19	503708	N
23:20	504144	N
23:21	504594	N
23:22	505021	N
23:23	505434	N
23:25	505841	N
23:26	506255	N
23:27	506695	N
23:28	507144	N
23:29	507555	N
23:30	507959	V
23:32	508376	N
23:33	508790	N
23:34	509229	N
23:35	509651	N
23:36	510061	N
23:37	510454	V
23:39	510914	N
23:40	511356	N
23:41	511766	N
23:42	512171	N
23:43	512581	N
23:44	512999	N
23:46	513433	N
23:47	513844	N
23:48	514238	N
23:49	514629	N
23:50	515061	N
23:51	515500	N
23:53	515914	N
23:54	516325	N
23:55	516740	N
23:56	517166	N
23:57	517613	N
23:59	518049	N
24:00	518447	N
24:01	518854	N
24:02	519268	N
24:03	519715	N
24:04	520105	N
24:05	520534	N
24:06	520916	N
24:08	521333	N
24:09	521767	N
24:10	522226	V
24:11	522424	a
24:11	522564	A
24:12	522927	N
24:13	523354	N
24:14	523554	a
24:15	524043	N
24:16	524465	N
24:17	524641	a
24:17	524774	a
24:18	525129	N
24:19	525533	N
24:21	525969	F
24:22	526408	N
24:22	526587	a
24:24	527103	N
24:24	527310	a
24:26	527806	N
24:26	527903	x
24:28	528550	N
24:28	528739	a
24:30	529258	N
24:30	529460	a
24:32	529955	N
24:32	530053	x
24:34	530695	N
24:34	530879	a
24:36	531413	N
24:36	531611	a
24:38	532105	N
24:38	532320	a
24:40	532855	N
24:40	532956	x
24:42	533554	N
24:42	533729	a
24:44	534242	N
24:44	534443	a
24:46	534980	N
24:46	535176	a
24:46	535314	A
24:48	535690	N
24:48	535879	a
24:49	536375	N
24:50	536473	x
24:52	537134	N
24:52	537313	a
24:54	537840	N
24:54	538025	a
24:54	538146	a
24:55	538538	N
24:56	538728	a
24:58	539283	N
24:58	539386	x
25:00	540001	N
25:00	540174	a
25:01	540692	N
25:02	540903	a
25:04	541445	N
25:04	541629	a
25:05	541865	N
25:06	542230	N
25:06	542396	A
25:08	542921	N
25:08	543144	a
25:10	543693	N
25:10	543793	x
25:12	544401	N
25:12	544575	a
25:14	545132	N
25:14	545324	A
25:16	545889	N
25:16	546098	a
25:18	546601	N
25:18	546687	x
25:20	547295	N
25:20	547485	a
25:21	547639	a
25:22	548032	N
25:22	548230	a
25:23	548354	a
25:24	548741	N
25:24	548833	x
25:25	549053	N
25:26	549478	N
25:26	549690	a
25:28	550263	N
25:30	550972	N
25:30	551140	a
25:32	551699	N
25:32	551796	x
25:33	551907	x
25:34	552443	N
25:35	552618	a
25:36	553145	N
25:37	553558	N
25:38	553996	N
25:39	554359	V
25:40	554613	N
25:42	555139	N
25:44	555842	N
25:44	556029	a
25:46	556577	N
25:47	557278	N
25:48	557457	a
25:48	557602	A
25:49	557941	N
25:50	558269	N
25:51	558643	N
25:52	558830	A
25:52	558969	A
25:53	559322	N
25:54	559499	A
25:54	559628	A
25:55	559989	N
25:56	560175	A
25:57	560709	N
25:57	560815	x
25:59	561433	N
26:00	561609	a
26:00	561735	a
26:01	562130	N
26:01	562311	a
26:02	562460	a
26:03	562923	N
26:04	563378	N
26:05	563573	a
26:06	564081	N
26:07	564262	a
26:08	564805	N
26:09	564913	x
26:11	565565	F
26:11	565732	a
26:12	566244	N
26:13	566349	x
26:14	566984	N
26:15	567165	a
26:16	567708	N
26:17	567803	x
26:18	568396	N
26:19	568486	x
26:20	569094	N
26:21	569289	a
26:22	569829	N
26:23	569921	x
26:24	570493	N
26:24	570586	+
26:25	570676	a
26:25	570815	a
26:26	571016	A
26:26	571186	+
26:27	571584	N
26:28	571684	x
26:28	571923	N
26:29	572348	N
26:30	572543	a
26:31	573050	N
26:32	573143	x
26:33	573801	N
26:34	573990	a
26:35	574487	N
26:36	574742	+
26:36	574802	N
26:37	574988	N
26:37	575137	N
26:38	575349	N
26:38	575525	N
26:39	575699	N
26:39	575857	N
26:40	576046	N
26:40	576336	N
26:41	576541	N
26:41	576694	N
26:42	576908	N
26:42	577079	N
26:43	577278	N
26:44	577571	N
26:45	577868	N
26:45	578082	N
26:46	578253	N
26:46	578454	N
26:47	578697	N
26:48	578964	N
26:48	579144	N
26:49	579400	N
26:50	579635	N
26:50	579959	N
26:51	580157	N
26:52	580368	N
26:52	580545	N
26:53	580711	N
26:53	580944	N
26:54	581160	N
26:54	581361	N
26:55	581518	N
26:55	581659	N
26:56	581813	N
26:56	581965	N
26:56	582100	N
26:57	582249	N
26:58	582529	N
26:58	582712	N
26:59	583123	N
27:00	583362	N
27:00	583555	N
27:01	583736	N
27:01	583915	N
27:02	584224	N
27:03	584458	N
27:04	584719	N
27:04	584970	N
27:05	585211	N
27:06	585514	N
27:06	585694	N
27:07	585869	N
27:08	586295	N
27:09	586576	N
27:10	586838	N
27:10	587075	N
27:11	587360	N
27:11	587517	N
27:12	587651	N
27:12	587827	N
27:13	588036	N
27:14	588295	N
27:14	588534	N
27:15	588798	N
27:16	589008	N
27:16	589283	N
27:17	589478	N
27:18	589814	N
27:18	590000	N
27:19	590253	N
27:20	590522	N
27:21	590773	N
27:21	590995	N
27:22	591260	N
27:22	591425	N
27:23	591623	N
27:24	591919	N
27:24	592144	N
27:25	592367	N
27:26	592654	N
27:27	592921	N
27:27	593238	N
27:28	593399	N
27:29	593683	N
27:29	593947	N
27:30	594162	N
27:31	594421	N
27:31	594585	N
27:32	594847	N
27:33	595092	N
27:33	595351	N
27:34	595565	N
27:35	595853	N
27:35	596034	N
27:36	596348	N
27:37	596563	N
27:37	596851	N
27:38	597068	N
27:39	597326	N
27:39	597581	N
27:40	597822	N
27:41	598018	N
27:41	598240	N
27:42	598456	N
27:43	598758	N
27:43	599023	N
27:44	599282	N
27:45	599443	N
27:45	599665	N
27:46	599825	N
27:46	600116	N
27:47	600371	N
27:48	600563	N
27:49	600872	N
27:49	601127	N
27:50	601423	N
27:51	601709	N
27:52	601923	N
27:52	602182	N
27:53	602370	N
27:53	602590	N
27:54	602766	N
27:54	602915	N
27:55	603140	N
27:56	603403	N
27:56	603669	N
27:57	603911	N
27:58	604096	N
27:58	604360	N
27:59	604530	N
27:59	604764	N
28:00	604995	N
28:01	605234	N
28:01	605478	N
28:02	605715	N
28:03	605974	N
28:03	606196	N
28:04	606428	N
28:05	606634	N
28:05	606868	N
28:06	607020	a
28:06	607198	N
28:07	607417	N
28:07	607560	a
28:08	607794	N
28:09	608070	N
28:09	608312	N
28:10	608552	N
28:11	608865	N
28:11	609089	N
28:12	609339	N
28:13	609561	N
28:13	609830	N
28:14	610137	N
28:15	610404	N
28:16	610565	N
28:16	610811	N
28:17	611033	N
28:18	611316	N
28:18	611597	N
28:19	611832	N
28:20	612135	N
28:21	612401	N
28:21	612718	N
28:22	612980	N
28:23	613186	N
28:23	613390	N
28:24	613578	N
28:24	613793	N
28:25	614110	N
28:26	614274	N
28:26	614517	N
28:27	614734	N
28:28	614944	N
28:28	615121	N
28:29	615257	a
28:29	615518	N
28:30	615798	N
28:31	615979	N
28:31	616224	N
28:32	616469	N
28:33	616725	N
28:33	616965	N
28:34	617135	N
28:35	617443	N
28:35	617662	N
28:36	617951	N
28:37	618146	N
28:37	618305	N
28:38	618575	N
28:38	618816	N
28:39	619015	N
28:40	619221	N
28:40	619444	N
28:41	619680	N
28:41	619858	N
28:42	620051	N
28:42	620226	N
28:43	620464	N
28:44	620739	N
28:44	620973	N
28:45	621242	N
28:46	621401	N
28:46	621626	N
28:47	621878	N
28:48	622143	N
28:48	622408	N
28:49	622632	N
28:50	622849	N
28:50	623042	N
28:51	623293	N
28:51	623460	N
28:52	623679	N
28:53	623912	N
28:53	624146	N
28:54	624350	N
28:54	624580	N
28:55	624829	N
28:56	625128	N
28:57	625473	N
28:58	625718	N
28:58	625928	N
28:59	626181	N
29:00	626424	N
29:00	626587	N
29:01	626829	N
29:01	627023	N
29:02	627197	N
29:02	627460	N
29:03	627708	N
29:04	627880	N
29:05	628312	N
29:05	628530	N
29:06	628701	N
29:06	628905	N
29:07	629130	N
29:08	629324	N
29:08	629624	N
29:09	629796	N
29:10	630031	N
29:10	630291	N
29:11	630459	N
29:12	630733	N
29:12	630954	N
29:13	631221	N
29:13	631391	N
29:14	631556	N
29:15	631814	N
29:15	632076	N
29:16	632361	N
29:17	632617	N
29:17	632776	N
29:18	633008	N
29:19	633285	N
29:19	633503	N
29:20	633736	N
29:21	634015	N
29:22	634386	N
29:22	634669	N
29:23	634922	N
29:24	635208	N
29:25	635493	N
29:25	635666	N
29:26	635838	N
29:26	636101	N
29:27	636350	N
29:28	636652	N
29:29	636907	N
29:30	637281	N
29:30	637523	N
29:31	637694	N
29:31	637877	N
29:32	638103	N
29:33	638295	N
29:33	638532	N
29:34	638710	N
29:34	638929	N
29:35	639138	N
29:36	639365	N
29:36	639629	N
29:37	639845	N
29:37	639996	N
29:38	640259	N
29:39	640522	N
29:39	640791	N
29:40	641018	N
29:41	641205	N
29:42	641542	N
29:42	641821	N
29:43	642037	N
29:44	642306	N
29:44	642495	N
29:45	642734	N
29:46	642969	N
29:46	643236	N
29:47	643411	+
29:50	644594	j
29:52	645177	N
29:53	645802	j
29:54	646051	N
29:55	646257	+
29:55	646519	N
29:56	646690	a
29:57	647249	N
29:58	647321	x
29:59	647965	N
30:01	648419	N
30:01	648594	a
30:03	649104	N
30:03	649181	x
30:05	649800	N
