0:00	348	N
0:02	742	N
0:03	1155	N
0:04	1576	N
0:05	1980	N
0:06	2365	N
0:07	2757	N
0:08	3167	N
0:09	3589	N
0:11	4006	N
0:12	4400	N
0:13	4799	N
0:14	5200	N
0:15	5613	N
0:16	6015	N
0:17	6406	N
0:18	6798	N
0:19	7191	N
0:21	7607	N
0:22	8041	N
0:23	8461	N
0:24	8857	N
0:25	9260	N
0:26	9677	N
0:28	10109	N
0:28	10346	V
0:30	10900	N
0:31	11290	N
0:32	11681	N
0:33	12088	N
0:34	12496	N
0:35	12886	N
0:36	13279	N
0:37	13675	N
0:39	14095	N
0:40	14524	N
0:41	14949	N
0:42	15353	N
0:43	15756	N
0:44	16176	N
0:46	16609	N
0:47	17023	N
0:48	17409	N
0:49	17792	N
0:50	18194	N
0:51	18612	N
0:52	19006	N
0:53	19400	N
0:54	19789	N
0:56	20191	N
0:57	20610	N
0:58	21035	N
0:59	21460	N
1:00	21859	N
1:01	22256	N
1:03	22681	N
1:04	23109	N
1:05	23529	N
1:06	23929	N
1:07	24330	N
1:08	24756	N
1:09	25181	N
1:11	25591	N
1:12	25984	N
1:13	26374	N
1:14	26778	N
1:15	27200	N
1:16	27617	N
1:17	28030	N
1:18	28424	N
1:20	28823	N
1:21	29245	N
1:22	29676	N
1:23	30091	N
1:24	30489	N
1:25	30886	N
1:27	31326	N
1:28	31753	N
1:29	32149	N
1:30	32533	N
1:31	32917	N
1:32	33307	N
1:33	33709	N
1:34	34106	N
1:35	34503	N
1:36	34889	N
1:37	35278	N
1:39	35691	N
1:40	36112	N
1:41	36524	N
1:42	36909	N
1:43	37292	N
1:44	37701	N
1:45	38116	N
1:47	38523	N
1:48	38924	N
1:49	39316	N
1:50	39729	N
1:51	40155	N
1:52	40572	N
1:53	40978	N
1:54	41369	N
1:55	41758	N
1:57	42167	N
1:58	42581	N
1:59	42994	N
2:00	43386	N
2:01	43778	N
2:02	44189	N
2:03	44617	N
2:05	45030	N
2:06	45425	N
2:07	45819	N
2:08	46228	N
2:09	46659	N
2:10	47079	N
2:11	47489	N
2:13	47890	N
2:14	48294	N
2:15	48709	N
2:16	49133	N
2:17	49541	N
2:18	49936	N
2:19	50327	N
2:20	50734	N
2:22	51165	N
2:23	51578	N
2:24	51968	N
2:25	52360	N
2:26	52771	N
2:27	53208	N
2:28	53635	N
2:30	54042	N
2:31	54455	N
2:32	54874	N
2:33	55302	N
2:34	55725	N
2:35	56124	N
2:36	56517	N
2:38	56908	N
2:39	57318	N
2:40	57742	N
2:41	58146	N
2:42	58534	N
2:43	58932	N
2:44	59354	N
2:46	59788	N
2:47	60206	N
2:48	60597	N
2:49	60997	N
2:50	61405	N
2:51	61826	N
2:52	62243	N
2:54	62645	N
2:55	63045	N
2:56	63452	N
2:57	63872	N
2:58	64298	N
2:59	64703	N
3:00	65087	N
3:01	65471	N
3:02	65878	N
3:04	66307	N
3:05	66714	N
3:06	67102	N
3:07	67499	N
3:08	67924	N
3:09	68354	N
3:11	68771	N
3:12	69170	N
3:13	69568	N
3:14	69980	N
3:15	70400	N
3:16	70819	N
3:17	71228	N
3:18	71615	N
3:20	72013	N
3:21	72431	N
3:22	72861	N
3:23	73275	N
3:24	73669	N
3:25	74070	N
3:26	74508	N
3:28	74943	N
3:29	75365	N
3:30	75768	N
3:31	76177	N
3:32	76605	N
3:33	77025	N
3:35	77445	N
3:36	77834	N
3:37	78218	N
3:38	78617	N
3:39	79042	N
3:40	79463	N
3:41	79864	N
3:42	80247	N
3:44	80644	N
3:45	81064	N
3:46	81479	N
3:47	81883	N
3:48	82108	V
3:49	82653	N
3:50	83064	N
3:51	83479	N
3:53	83888	N
3:54	84285	N
3:55	84675	N
3:56	85081	N
3:57	85506	N
3:58	85931	N
3:59	86337	N
4:00	86730	N
4:02	87123	N
4:03	87554	N
4:04	87976	N
4:05	88210	V
4:06	88750	N
4:07	89131	N
4:08	89538	N
4:09	89935	N
4:10	90332	N
4:12	90728	N
4:13	91115	N
4:14	91516	N
4:15	91940	N
4:16	92364	N
4:17	92777	N
4:18	93170	N
4:19	93555	N
4:21	93969	N
4:22	94398	N
4:23	94808	N
4:24	95204	N
4:25	95593	N
4:26	95825	V
4:27	96399	N
4:28	96801	N
4:29	97180	N
4:30	97558	N
4:32	97946	N
4:33	98353	N
4:34	98761	N
4:35	99168	N
4:36	99567	N
4:37	99958	N
4:38	100366	N
4:39	100796	N
4:41	101218	N
4:42	101611	N
4:43	102010	N
4:44	102422	N
4:45	102858	N
4:46	103281	N
4:48	103681	N
4:49	104083	N
4:50	104491	N
4:51	104911	N
4:52	105333	N
4:53	105736	N
4:54	106134	N
4:55	106528	N
4:57	106948	N
4:58	107382	N
4:59	107800	N
5:00	108194	N
5:01	108587	N
5:02	108999	N
5:03	109420	N
5:05	109826	N
5:06	110205	N
5:07	110590	N
5:08	111003	N
5:09	111424	N
5:10	111830	N
5:11	112235	N
5:12	112637	N
5:14	113048	N
5:15	113476	N
5:16	113912	N
5:17	114333	N
5:18	114733	N
5:19	115136	N
5:21	115560	N
5:22	115993	N
5:23	116406	N
5:24	116802	N
5:25	117204	N
5:26	117635	N
5:27	118063	N
5:29	118487	N
5:30	118896	N
5:31	119305	N
5:32	119730	N
5:33	120163	N
5:34	120416	V
5:36	121006	N
5:37	121406	N
5:38	121819	N
5:39	122250	N
5:40	122679	N
5:41	123086	N
5:43	123480	N
5:44	123895	N
5:45	124327	N
5:46	124746	N
5:47	125155	N
5:48	125547	N
5:49	125949	N
5:51	126366	N
5:52	126784	N
5:53	127203	N
5:54	127600	N
5:55	127992	N
5:56	128406	N
5:57	128834	N
5:59	129258	N
6:00	129652	N
6:01	130035	N
6:02	130440	N
6:03	130863	N
6:04	131273	N
6:05	131673	N
6:06	132061	N
6:07	132469	N
6:09	132902	N
6:10	133328	N
6:11	133751	N
6:12	134153	N
6:13	134553	N
6:14	134974	N
6:16	135403	N
6:17	135820	N
6:18	136212	N
6:19	136592	N
6:20	137001	N
6:21	137412	N
6:22	137813	N
6:23	138196	N
6:24	138580	N
6:26	138984	N
6:27	139419	N
6:28	139851	N
6:29	140275	N
6:30	140690	N
6:31	141097	N
6:33	141518	N
6:34	141944	N
6:35	142361	N
6:36	142757	N
6:37	143148	N
6:38	143557	N
6:39	143987	N
6:41	144401	N
6:42	144797	N
6:42	145068	A
6:44	145488	N
6:45	145937	N
6:46	146381	N
6:47	146805	N
6:48	147235	N
6:50	147664	N
6:51	148097	N
6:52	148527	N
6:53	148948	N
6:54	149335	N
6:55	149703	N
6:56	150083	N
6:58	150481	N
6:59	150887	N
7:00	151282	N
7:01	151679	N
7:02	152090	N
7:03	152528	N
7:04	152952	N
7:05	153352	N
7:07	153750	N
7:08	154159	N
7:09	154583	N
7:10	155008	N
7:11	155416	N
7:12	155637	V
7:13	156200	N
7:15	156612	N
7:16	157020	N
7:17	157424	N
7:18	157805	N
7:19	158187	N
7:20	158588	N
7:21	159012	N
7:22	159430	N
7:23	159827	N
7:25	160222	N
7:26	160635	N
7:27	161060	N
7:28	161477	N
7:29	161884	N
7:30	162279	N
7:31	162677	N
7:33	163092	N
7:34	163515	N
7:35	163927	N
7:36	164318	N
7:37	164707	N
7:38	165118	N
7:39	165549	N
7:41	165976	N
7:42	166377	N
7:43	166775	N
7:44	167198	N
7:45	167631	N
7:46	168045	N
7:47	168440	N
7:48	168828	N
7:50	169224	N
7:51	169633	N
7:52	170038	N
7:53	170290	V
7:54	170814	N
7:55	171185	N
7:56	171569	N
7:57	171957	N
7:58	172345	N
7:59	172721	N
8:00	173089	N
8:01	173470	N
8:02	173879	N
8:04	174282	N
8:05	174683	N
8:06	175064	N
8:07	175450	N
8:08	175847	N
8:09	176257	N
8:10	176670	N
8:11	177075	N
8:12	177464	N
8:14	177859	N
8:15	178275	N
8:16	178705	N
8:17	179119	N
8:18	179514	N
8:19	179909	N
8:20	180331	N
8:22	180752	N
8:23	181153	N
8:24	181542	N
8:25	181932	N
8:26	182341	N
8:27	182752	N
8:28	183163	N
8:29	183569	N
8:31	183961	N
8:32	184355	N
8:33	184778	N
8:34	185202	N
8:35	185620	N
8:36	186013	N
8:37	186409	N
8:38	186837	N
8:40	187264	N
8:41	187673	N
8:42	188068	N
8:43	188457	N
8:44	188864	N
8:45	189271	N
8:46	189676	N
8:47	190075	N
8:49	190459	N
8:50	190849	N
8:51	191262	N
8:52	191684	N
8:53	192094	N
8:54	192488	N
8:55	192874	N
8:56	193280	N
8:58	193700	N
8:59	194105	N
9:00	194488	N
9:01	194873	N
9:02	195271	N
9:03	195693	N
9:04	196107	N
9:05	196507	N
9:06	196905	N
9:08	197303	N
9:09	197712	N
9:10	198129	N
9:11	198533	N
9:12	198926	N
9:13	199312	N
9:14	199699	N
9:15	200107	N
9:16	200498	N
9:17	200858	N
9:18	201216	N
9:19	201578	N
9:20	201959	N
9:22	202345	N
9:23	202714	N
9:24	203065	N
9:25	203428	N
9:26	203804	N
9:27	204210	N
9:28	204625	N
9:29	205029	N
9:30	205422	N
9:31	205814	N
9:32	206216	N
9:33	206639	N
9:35	207058	N
9:36	207448	N
9:37	207835	N
9:38	208228	N
9:39	208628	N
9:40	209011	N
9:41	209382	N
9:42	209742	N
9:43	210111	N
9:44	210485	N
9:45	210859	N
9:46	211224	N
9:47	211570	N
9:48	211906	N
9:49	212238	N
9:50	212583	N
9:51	212931	N
9:52	213280	N
9:53	213618	N
9:54	213941	N
9:55	214260	N
9:56	214592	N
9:57	214938	N
9:58	215294	N
9:58	215639	N
9:59	215969	N
10:00	216298	N
10:01	216632	N
10:02	216978	N
10:03	217314	N
10:04	217646	N
10:05	217973	N
10:06	218296	N
10:07	218534	V
10:08	218931	N
10:09	219268	N
10:10	219607	N
10:10	219945	N
10:11	220266	N
10:12	220575	N
10:13	220891	N
10:14	221224	N
10:15	221564	N
10:16	221906	N
10:17	222234	N
10:17	222462	V
10:19	222870	N
10:20	223211	N
10:20	223550	N
10:21	223893	N
10:22	224232	N
10:23	224471	V
10:24	224883	N
10:25	225220	N
10:26	225559	N
10:27	225907	N
10:28	226256	N
10:29	226507	V
10:30	226929	N
10:31	227254	N
10:32	227584	N
10:33	227926	N
10:34	228277	N
10:34	228542	V
10:35	228954	N
10:36	229270	N
10:37	229595	N
10:38	229943	N
10:39	230287	N
10:40	230622	N
10:41	230950	N
10:42	231263	N
10:43	231577	N
10:44	231902	N
10:45	232234	N
10:45	232477	V
10:46	232907	N
10:47	233240	N
10:48	233554	N
10:49	233864	N
10:50	234190	N
10:51	234525	N
10:52	234865	N
10:53	235211	N
10:54	235532	N
10:55	235854	N
10:56	236181	N
10:57	236531	N
10:57	236879	N
10:58	237217	N
10:59	237548	N
11:00	237869	N
11:01	238193	N
11:02	238428	V
11:03	238872	N
11:04	239212	N
11:05	239543	N
11:06	239867	N
11:07	240178	N
11:08	240490	N
11:08	240814	N
11:09	240857	|
11:09	241146	N
11:10	241469	N
11:11	241789	N
11:12	242094	N
11:13	242402	N
11:14	242724	N
11:15	243058	N
11:16	243400	N
11:17	243727	N
11:17	244039	N
11:18	244258	V
11:19	244657	N
11:20	244990	N
11:21	245330	N
11:22	245661	N
11:23	245979	N
11:24	246297	N
11:25	246615	N
11:25	246938	N
11:26	247270	N
11:27	247619	N
11:28	247956	N
11:29	248295	N
11:30	248629	N
11:31	248952	N
11:32	249297	N
11:33	249656	N
11:34	250040	N
11:35	250379	N
11:36	250718	N
11:37	251060	N
11:38	251432	N
11:39	251808	N
11:40	252185	N
11:41	252551	N
11:42	252914	N
11:43	253276	N
11:44	253661	N
11:45	254044	N
11:46	254433	N
11:47	254801	N
11:48	255176	N
11:49	255540	N
11:50	255927	N
11:52	256329	N
11:53	256722	N
11:54	257094	N
11:55	257464	N
11:56	257845	N
11:57	258249	N
11:58	258654	N
11:59	259039	N
12:00	259417	N
12:01	259793	N
12:02	260193	N
12:03	260588	N
12:04	260984	N
12:06	261365	N
12:07	261746	N
12:08	262129	N
12:09	262521	N
12:10	262933	N
12:11	263318	N
12:12	263686	N
12:13	264053	N
12:14	264436	N
12:15	264838	N
12:16	265016	A
12:16	265159	A
12:17	265365	A
12:18	265832	N
12:19	266196	N
12:20	266575	N
12:21	266954	N
12:22	267329	N
12:23	267711	N
12:24	267880	a
12:25	268314	N
12:26	268688	N
12:26	268865	A
12:28	269330	N
12:29	269706	N
12:29	269877	A
12:30	270305	N
12:31	270666	N
12:32	271039	N
12:33	271292	V
12:35	271802	N
12:36	272165	N
12:37	272529	N
12:38	272916	N
12:38	273099	A
12:39	273572	N
12:41	273968	N
12:41	274139	A
12:42	274592	N
12:43	274977	N
12:44	275152	a
12:45	275443	V
12:46	276017	N
12:47	276403	N
12:48	276780	N
12:49	276949	a
12:50	277408	N
12:51	277824	N
12:52	278232	N
12:53	278406	A
12:54	278854	N
12:55	279247	N
12:56	279652	N
12:57	280059	N
12:59	280458	N
12:59	280634	A
13:00	281094	N
13:01	281481	N
13:03	281887	N
13:03	282070	A
13:04	282547	N
13:05	282944	N
13:06	283115	A
13:07	283562	N
13:08	283958	N
13:09	284357	N
13:10	284758	N
13:12	285130	N
13:13	285496	N
13:14	285872	N
13:15	286281	N
13:16	286685	N
13:17	287075	N
13:18	287452	N
13:19	287837	N
13:20	288238	N
13:21	288644	N
13:22	288823	A
13:23	289299	N
13:24	289690	N
13:25	290074	N
13:26	290254	A
13:27	290743	N
13:28	291144	N
13:29	291538	N
13:30	291907	N
13:31	292282	N
13:33	292686	N
13:34	293087	N
13:35	293478	N
13:36	293766	|
13:36	293853	N
13:37	294221	N
13:38	294613	N
13:39	295022	N
13:40	295417	N
13:41	295806	N
13:42	296184	N
13:43	296562	N
13:44	296953	N
13:45	297347	N
13:47	297748	N
13:48	298133	N
13:49	298496	N
13:50	298877	N
13:51	299280	N
13:52	299687	N
13:53	300065	N
13:54	300436	N
13:55	300812	N
13:56	301203	N
13:57	301618	N
13:58	302010	N
13:59	302396	N
14:00	302570	A
14:01	303018	N
14:02	303417	N
14:03	303813	N
14:05	304209	N
14:06	304589	N
14:07	304958	N
14:08	305336	N
14:09	305741	N
14:10	306152	N
14:11	306547	N
14:12	306923	N
14:13	307294	N
14:14	307687	N
14:15	308093	N
14:16	308484	N
14:17	308852	N
14:18	309231	N
14:20	309605	N
14:21	310011	N
14:22	310417	N
14:23	310814	N
14:24	311200	N
14:25	311580	N
14:26	311968	N
14:27	312381	N
14:28	312792	N
14:29	313181	N
14:31	313564	N
14:32	313958	N
14:33	314367	N
14:34	314782	N
14:35	315178	N
14:36	315563	N
14:37	315950	N
14:38	316350	N
14:39	316757	N
14:40	317157	N
14:42	317550	N
14:43	317921	N
14:44	318308	N
14:45	318705	N
14:46	319118	N
14:47	319511	N
14:48	319886	N
14:49	320270	N
14:50	320664	N
14:51	321079	N
14:52	321475	N
14:54	321857	N
14:55	322242	N
14:56	322631	N
14:57	323032	N
14:58	323441	N
14:59	323845	N
15:00	324227	N
15:01	324617	N
15:02	325013	N
15:03	325434	N
15:05	325842	N
15:06	326234	N
15:07	326612	N
15:08	327008	N
15:09	327419	N
15:10	327839	N
15:11	328234	N
15:12	328616	N
15:13	329016	N
15:15	329426	N
15:16	329838	N
15:17	330246	N
15:18	330628	N
15:19	331021	N
15:20	331416	N
15:21	331824	N
15:22	332232	N
15:23	332616	N
15:24	332993	N
15:26	333368	N
15:27	333762	N
15:28	334171	N
15:29	334560	N
15:30	334941	N
15:31	335317	N
15:32	335722	N
15:33	336129	N
15:34	336530	N
15:35	336915	N
15:36	337288	N
15:37	337677	N
15:39	338076	N
15:40	338478	N
15:41	338877	N
15:42	339263	N
15:43	339639	N
15:44	340032	N
15:45	340443	N
15:46	340852	N
15:47	341244	N
15:48	341621	N
15:50	342008	N
15:51	342438	N
15:52	342854	N
15:53	343245	N
15:54	343629	N
15:55	344020	N
15:56	344431	N
15:57	344843	N
15:59	345249	N
16:00	345648	N
16:01	346032	N
16:02	346426	N
16:03	346832	N
16:04	347244	N
16:05	347642	N
16:06	348024	N
16:07	348410	N
16:08	348826	N
16:10	349232	N
16:11	349626	N
16:12	350002	N
16:13	350372	N
16:14	350754	N
16:15	351146	N
16:16	351530	N
16:17	351910	N
16:18	352275	N
16:19	352645	N
16:20	353023	N
16:21	353422	N
16:22	353818	N
16:23	354207	N
16:24	354581	N
16:25	354953	N
16:27	355364	N
16:28	355763	N
16:29	356150	N
16:30	356523	N
16:31	356887	N
16:32	357260	N
16:33	357652	N
16:34	358027	N
16:35	358391	N
16:36	358760	N
16:37	359116	N
16:38	359492	N
16:39	359897	N
16:40	360285	N
16:41	360679	N
16:42	361057	N
16:44	361440	N
16:45	361865	N
16:46	362280	N
16:47	362670	N
16:48	363065	N
16:49	363455	N
16:50	363875	N
16:51	364294	N
16:53	364708	N
16:54	365108	N
16:55	365505	N
16:56	365913	N
16:57	366328	N
16:58	366748	N
16:59	367159	N
17:00	367542	N
17:02	367937	N
17:03	368354	N
17:04	368782	N
17:05	369189	N
17:06	369574	N
17:07	369968	N
17:08	370386	N
17:10	370803	N
17:11	371219	N
17:12	371622	N
17:13	372017	N
17:14	372424	N
17:15	372843	N
17:16	373264	N
17:17	373670	N
17:19	374065	N
17:20	374471	N
17:21	374893	N
17:22	375321	N
17:23	375739	N
17:24	376128	N
17:25	376531	N
17:27	376955	N
17:28	377395	N
17:29	377814	N
17:30	378215	N
17:31	378634	N
17:32	379061	N
17:34	379493	N
17:35	379910	N
17:36	380319	N
17:37	380725	N
17:38	381141	N
17:39	381577	N
17:41	382004	N
17:42	382411	N
17:43	382811	N
17:44	383221	N
17:45	383660	N
17:46	384096	N
17:48	384502	N
17:49	384910	N
17:50	385338	N
17:51	385779	N
17:52	386214	N
17:53	386628	N
17:55	387042	N
17:56	387461	N
17:57	387899	N
17:58	388338	N
17:59	388757	N
18:00	389151	N
18:02	389558	N
18:03	389983	N
18:04	390414	N
18:05	390826	N
18:06	391216	N
18:07	391624	N
18:09	392057	N
18:10	392491	N
18:11	392914	N
18:12	393318	N
18:13	393732	N
18:14	394151	N
18:16	394579	N
18:17	395015	N
18:18	395422	N
18:19	395826	N
18:20	396250	N
18:21	396672	N
18:23	397109	N
18:24	397519	N
18:25	397917	N
18:26	398353	N
18:27	398798	N
18:28	399219	N
18:30	399628	N
18:31	400027	N
18:32	400453	N
18:33	400888	N
18:34	401316	N
18:35	401737	N
18:37	402138	N
18:38	402550	N
18:39	402979	N
18:40	403415	N
18:41	403834	N
18:42	404235	N
18:43	404414	A
18:44	404938	N
18:45	405138	a
18:45	405286	a
18:46	405663	N
18:47	405848	A
18:48	406333	N
18:49	406521	a
18:50	407020	N
18:51	407220	a
18:52	407728	N
18:53	407925	a
18:53	408068	a
18:54	408421	N
18:55	408602	A
18:56	409092	N
18:56	409291	a
18:57	409437	a
18:58	409820	N
18:58	410010	A
18:59	410159	A
19:00	410520	N
19:00	410697	A
19:02	411192	N
19:02	411338	+
19:02	411392	a
19:03	411544	a
19:03	411706	N
19:04	411881	N
19:04	412090	N
19:05	412322	N
19:05	412518	N
19:06	412701	N
19:06	412874	N
19:07	413038	N
19:07	413255	N
19:08	413470	N
19:09	413654	N
19:09	413812	N
19:10	414075	N
19:10	414321	N
19:11	414521	N
19:11	414706	N
19:12	414877	N
19:13	415084	N
19:13	415250	N
19:13	415406	N
19:14	415631	N
19:15	415834	N
19:15	416063	N
19:16	416262	N
19:16	416455	N
19:17	416693	N
19:17	416822	+
19:18	417155	N
19:19	417578	N
19:20	417763	A
19:20	417924	A
19:22	418352	N
19:22	418540	A
19:23	418694	A
19:24	419080	N
19:24	419254	A
19:25	419400	A
19:26	419787	N
19:26	419974	A
19:27	420144	A
19:28	420539	N
19:28	420720	A
19:30	421237	N
19:30	421419	a
19:32	421927	N
19:32	422104	a
19:32	422255	A
19:34	422645	N
19:34	422826	a
19:34	422987	A
19:35	423356	N
19:36	423479	+
19:36	423532	N
19:36	423682	N
19:37	423947	N
19:38	424143	N
19:38	424335	N
19:39	424502	N
19:40	424834	N
19:40	425076	N
19:41	425263	N
19:41	425486	N
19:42	425799	N
19:43	426006	N
19:44	426244	N
19:44	426424	N
19:45	426608	N
19:45	426818	N
19:46	426992	N
19:46	427161	N
19:47	427338	N
19:47	427508	N
19:47	427677	N
19:48	427876	N
19:49	428070	N
19:49	428389	N
19:50	428583	N
19:51	428808	N
19:51	429017	N
19:52	429195	N
19:52	429373	N
19:53	429543	N
19:53	429719	N
19:54	429891	N
19:54	430077	N
19:55	430248	N
19:55	430420	N
19:56	430593	N
19:56	430764	N
19:57	430952	N
19:57	431134	N
19:58	431319	N
19:58	431491	N
19:59	431674	N
19:59	431911	N
20:00	432087	N
20:00	432259	N
20:01	432496	N
20:01	432719	N
20:02	432918	N
20:03	433169	N
20:03	433365	N
20:04	433546	N
20:04	433720	N
20:05	433890	N
20:05	434049	N
20:06	434212	N
20:06	434378	N
20:07	434541	N
20:07	434701	N
20:08	434922	N
20:08	435143	N
20:09	435316	N
20:09	435491	N
20:10	435662	N
20:10	435839	N
20:11	436026	N
20:11	436193	N
20:12	436356	N
20:12	436514	N
20:13	436680	N
20:13	436829	N
20:13	436994	N
20:14	437176	N
20:14	437341	N
20:15	437515	N
20:15	437689	N
20:16	437867	N
20:16	438038	N
20:17	438219	N
20:17	438388	N
20:18	438618	N
20:18	438798	N
20:19	439023	N
20:20	439243	N
20:20	439414	N
20:21	439593	N
20:21	439762	N
20:22	439934	N
20:22	440108	N
20:23	440286	N
20:23	440454	N
20:24	440662	N
20:24	440816	N
20:24	440982	N
20:25	441139	N
20:25	441312	N
20:26	441480	N
20:27	441735	N
20:27	441901	N
20:28	442086	N
20:28	442298	N
20:29	442476	N
20:29	442706	N
20:30	442913	N
20:30	443119	N
20:31	443326	N
20:31	443514	N
20:32	443767	N
20:33	443977	N
20:33	444211	N
20:34	444419	N
20:35	444641	N
20:35	444871	N
20:36	445026	N
20:36	445267	N
20:37	445421	N
20:37	445579	N
20:38	445733	N
20:38	445895	N
20:39	446064	N
20:39	446232	N
20:39	446395	N
20:40	446574	N
20:40	446735	N
20:41	446967	N
20:42	447129	N
20:42	447289	N
20:43	447521	N
20:43	447702	N
20:44	447918	N
20:44	448172	N
20:45	448347	N
20:45	448523	N
20:46	448817	N
20:47	448986	N
20:47	449143	N
20:48	449295	N
20:48	449449	N
20:48	449604	N
20:49	449758	N
20:49	449914	N
20:50	450073	N
20:50	450230	N
20:51	450394	N
20:51	450559	N
20:52	450723	N
20:52	450902	N
20:52	451071	N
20:53	451224	N
20:53	451382	N
20:54	451534	N
20:54	451696	N
20:55	451867	N
20:55	452076	N
20:56	452253	N
20:56	452464	N
20:57	452637	N
20:57	452807	N
20:58	452974	N
20:58	453134	N
20:59	453293	N
20:59	453452	N
21:00	453608	N
21:00	453760	N
21:01	453983	N
21:01	454311	N
21:02	454530	N
21:03	454703	N
21:03	454867	N
21:03	455027	N
21:04	455193	N
21:04	455355	N
21:05	455518	N
21:05	455670	N
21:06	455824	N
21:06	455988	N
21:07	456160	N
21:07	456304	N
21:07	456456	N
21:08	456629	N
21:08	456799	N
21:09	456971	N
21:10	457282	N
21:10	457456	N
21:11	457759	N
21:11	457913	N
21:12	458070	N
21:12	458214	N
21:13	458361	N
21:13	458507	N
21:14	458673	N
21:14	458974	N
21:15	459142	N
21:15	459309	N
21:16	459471	N
21:16	459652	N
21:17	459817	N
21:17	460037	V
21:18	460258	N
21:18	460405	N
21:19	460565	N
21:20	460863	N
21:20	461035	N
21:21	461199	N
21:21	461365	N
21:22	461521	N
21:22	461680	N
21:22	461837	N
21:23	461995	N
21:23	462150	N
21:24	462301	N
21:24	462451	N
21:25	462606	N
21:25	462754	N
21:25	462932	N
21:26	463090	N
21:26	463256	N
21:27	463408	N
21:27	463568	N
21:28	463721	N
21:28	463885	N
21:29	464047	N
21:29	464203	N
21:29	464362	N
21:30	464515	N
21:30	464657	N
21:31	464863	N
21:31	464994	+
21:32	465243	N
21:33	465818	N
21:35	466316	N
21:35	466478	A
21:37	467065	F
21:37	467234	A
21:38	467418	A
21:39	467870	N
21:40	468043	A
21:41	468605	N
21:41	468678	+
21:42	468773	N
21:42	468934	N
21:43	469253	N
21:44	469483	N
21:44	469768	N
21:45	469986	N
21:46	470160	N
21:46	470349	N
21:47	470603	N
21:48	471066	N
21:49	471319	N
21:49	471511	N
21:50	471724	N
21:51	472019	N
21:51	472195	N
21:52	472353	N
21:52	472660	N
21:53	472974	N
21:54	473150	N
21:55	473438	N
21:55	473711	N
21:56	473910	N
21:56	474074	N
21:57	474405	N
21:58	474668	N
21:58	474833	N
21:59	474995	N
21:59	475136	N
22:00	475409	N
22:01	475637	N
22:01	475819	N
22:02	476027	N
22:02	476242	N
22:03	476430	N
22:04	476642	N
22:04	476800	N
22:04	476969	N
22:05	477236	N
22:06	477434	N
22:06	477569	N
22:07	477732	N
22:07	477941	N
22:08	478182	N
22:09	478449	N
22:09	478611	N
22:10	478824	N
22:10	478982	N
22:11	479221	N
22:11	479375	N
22:12	479711	N
22:13	479925	N
22:13	480185	N
22:14	480445	N
22:15	480739	N
22:15	480943	N
22:16	481177	N
22:17	481353	N
22:17	481580	N
22:18	481764	N
22:18	481880	a
22:18	482023	a
22:19	482251	N
22:20	482577	N
22:21	482779	N
22:22	483176	N
22:22	483381	N
22:23	483518	N
22:23	483726	N
22:24	483949	N
22:24	484198	N
22:25	484471	N
22:26	484741	N
22:27	485030	N
22:28	485287	N
22:28	485448	N
22:29	485705	N
22:29	485928	N
22:30	486193	N
22:31	486394	N
22:31	486640	N
22:32	486930	N
22:33	487213	N
22:34	487497	N
22:34	487678	N
22:35	487962	N
22:36	488299	N
22:36	488498	N
22:37	488696	N
22:38	489020	N
22:38	489233	N
22:39	489474	N
22:40	489679	N
22:40	489945	N
22:41	490177	N
22:42	490379	N
22:42	490637	N
22:43	490813	N
22:43	490976	N
22:44	491279	N
22:45	491509	N
22:45	491705	N
22:46	491941	N
22:46	492106	N
22:47	492308	N
22:48	492590	N
22:49	492849	N
22:49	493080	N
22:50	493287	N
22:50	493528	N
22:51	493799	N
22:52	494012	N
22:52	494216	N
22:53	494382	N
22:53	494611	N
22:54	494877	N
22:55	495299	N
22:56	495569	N
22:57	495871	N
22:58	496144	N
22:58	496405	N
22:59	496635	N
23:00	496926	N
23:01	497202	N
23:01	497412	N
23:02	497736	N
23:03	497939	N
23:03	498173	N
23:04	498339	N
23:04	498588	N
23:05	498773	N
23:06	498987	N
23:06	499200	N
23:07	499465	N
23:08	499686	N
23:08	500016	N
23:10	500452	N
23:11	500765	N
23:11	500985	N
23:12	501250	N
23:13	501546	N
23:13	501720	N
23:14	502010	N
23:15	502211	N
23:15	502430	N
23:16	502683	N
23:16	502871	N
23:17	503120	N
23:17	503275	N
23:18	503436	N
23:19	503662	N
23:19	503897	N
23:20	504071	N
23:20	504297	N
23:21	504676	N
23:22	504874	N
23:23	505148	N
23:23	505330	N
23:24	505513	N
23:24	505666	N
23:25	505870	N
23:25	506033	N
23:26	506248	N
23:27	506534	N
23:27	506832	N
23:28	507062	N
23:29	507291	N
23:29	507528	N
23:30	507819	N
23:31	508003	N
23:31	508244	N
23:32	508455	N
23:33	508725	N
23:33	508966	N
23:34	509148	N
23:34	509375	N
23:35	509689	N
23:36	509915	N
23:37	510162	N
23:37	510318	N
23:38	510564	N
23:38	510809	N
23:39	510981	N
23:39	511192	N
23:40	511395	N
23:41	511616	N
23:41	511837	N
23:42	511999	N
23:42	512211	N
23:43	512422	N
23:43	512581	N
23:44	512847	N
23:45	513014	N
23:45	513262	N
23:46	513523	N
23:47	513830	N
23:48	514122	N
23:48	514366	N
23:49	514642	N
23:50	514863	N
23:50	515089	N
23:51	515410	N
23:52	515689	N
23:53	515900	N
23:53	516124	N
23:54	516410	N
23:55	516643	N
23:55	516890	N
23:56	517116	N
23:57	517351	N
23:57	517586	N
23:58	517880	N
23:59	518202	N
24:00	518436	N
24:00	518596	N
24:01	518848	N
24:01	519046	N
24:02	519277	N
24:03	519550	N
24:04	519847	N
24:04	520074	N
24:05	520302	N
24:05	520489	N
24:06	520722	N
24:07	520969	N
24:07	521269	N
24:08	521535	N
24:09	521763	N
24:10	522008	N
24:10	522268	N
24:11	522499	N
24:11	522674	N
24:12	522934	N
24:13	523269	N
24:14	523464	N
24:15	523816	N
24:15	524019	N
24:16	524251	N
24:16	524474	N
24:17	524627	N
24:17	524857	N
24:18	525055	N
24:19	525281	N
24:19	525454	N
24:20	525666	N
24:20	525905	N
24:21	526133	N
24:21	526295	N
24:22	526485	N
24:22	526648	N
24:23	526966	N
24:24	527219	N
24:25	527420	N
24:25	527586	N
24:25	527744	N
24:26	527975	N
24:27	528166	N
24:27	528307	N
24:28	528545	N
24:28	528778	N
24:29	528980	N
24:30	529250	N
24:30	529398	N
24:31	529572	N
24:31	529825	N
24:32	530135	N
24:33	530403	N
24:34	530693	N
24:34	530910	N
24:35	531222	N
24:36	531393	N
24:36	531611	N
24:37	531877	N
24:38	532270	N
24:39	532589	N
24:40	532803	N
24:40	533079	N
24:41	533287	N
24:42	533590	N
24:42	533817	N
24:43	533962	N
24:43	534121	N
24:44	534359	N
24:44	534545	N
24:45	534824	N
24:46	535000	N
24:46	535249	N
24:47	535572	N
24:48	535903	N
24:49	536090	N
24:49	536246	N
24:50	536422	N
24:50	536735	N
24:51	536983	N
24:52	537203	N
24:52	537402	N
24:53	537673	N
24:54	537933	N
24:54	538095	N
24:55	538302	N
24:55	538487	N
24:56	538739	N
24:57	538982	N
24:58	539281	N
24:58	539587	N
24:59	539842	N
25:00	540052	N
25:00	540196	N
25:01	540505	N
25:02	540789	N
25:03	541136	N
25:03	541370	N
25:04	541675	N
25:05	541954	N
25:06	542244	N
25:06	542429	N
25:07	542796	N
25:08	543037	N
25:09	543284	N
25:09	543469	N
25:10	543674	N
25:10	543898	N
25:11	544110	N
25:12	544338	N
25:12	544605	N
25:13	544848	N
25:13	545001	N
25:14	545301	N
25:15	545559	N
25:16	545786	N
25:16	546046	N
25:17	546287	N
25:18	546531	N
25:18	546774	N
25:19	547072	N
25:20	547350	N
25:20	547529	N
25:21	547799	N
25:22	548092	N
25:22	548266	N
25:23	548557	N
25:24	548759	N
25:25	549007	N
25:25	549175	N
25:26	549405	N
25:26	549680	N
25:27	549793	+
25:27	549941	N
25:28	550153	N
25:28	550327	N
25:29	550505	N
25:29	550707	N
25:30	550867	N
25:30	551033	N
25:31	551195	N
25:31	551356	N
25:31	551518	N
25:32	551687	N
25:32	551858	N
25:33	552033	N
25:33	552196	N
25:34	552365	N
25:34	552525	N
25:35	552687	N
25:35	552850	N
25:36	553012	N
25:36	553177	N
25:37	553340	N
25:37	553505	N
25:37	553678	N
25:38	553846	N
25:38	554022	N
25:39	554198	N
25:39	554374	N
25:40	554560	N
25:41	554803	N
25:41	555018	N
25:42	555186	N
25:42	555342	N
25:43	555502	N
25:43	555665	N
25:43	555820	N
25:44	555983	N
25:44	556153	N
25:45	556325	N
25:45	556500	N
25:46	556673	N
25:46	556838	N
25:47	557004	N
25:47	557162	N
25:48	557317	N
25:48	557474	N
25:48	557630	N
25:49	557790	N
25:49	557946	N
25:50	558110	N
25:50	558279	N
25:51	558448	N
25:51	558621	N
25:52	558787	N
25:52	558951	N
25:53	559115	N
25:53	559273	N
25:53	559429	N
25:54	559585	N
25:54	559742	N
25:55	559902	N
25:55	560061	N
25:56	560226	N
25:56	560395	N
25:57	560559	N
25:57	560726	N
25:58	560890	N
25:58	561057	N
25:58	561221	N
25:59	561379	N
25:59	561541	N
26:00	561696	N
26:00	561853	N
26:01	562010	N
26:01	562165	N
26:02	562326	N
26:02	562487	N
26:02	562638	N
26:03	562802	N
26:03	562966	N
26:04	563133	N
26:04	563300	N
26:05	563457	N
26:05	563614	N
26:06	563764	N
26:06	563913	N
26:06	564067	N
26:07	564221	N
26:07	564378	N
26:08	564530	N
26:08	564691	N
26:09	564857	N
26:09	565026	N
26:09	565194	N
26:10	565359	N
26:10	565516	N
26:11	565676	N
26:11	565830	N
26:12	565983	N
26:12	566134	N
26:13	566290	N
26:13	566445	N
26:13	566603	N
26:14	566760	N
26:14	566922	N
26:15	567041	+
26:15	567154	N
26:16	567382	N
26:16	567639	N
26:17	567862	N
26:17	568072	N
26:18	568352	N
26:19	568583	N
26:19	568771	N
26:20	569065	N
26:21	569312	N
26:21	569506	N
26:23	569892	N
26:23	570116	V
26:24	570463	N
26:25	570719	N
26:25	570909	N
26:26	571242	N
26:27	571517	N
26:28	571796	N
26:29	572049	N
26:29	572255	N
26:30	572407	N
26:30	572628	N
26:31	572838	N
26:32	573210	N
26:32	573424	N
26:33	573666	N
26:34	573920	N
26:34	574122	N
26:35	574360	N
26:36	574586	N
26:36	574844	N
26:37	575098	N
26:38	575295	N
26:38	575467	N
26:39	575702	N
26:39	575982	N
26:40	576238	N
26:41	576387	N
26:41	576704	N
26:42	576944	N
26:43	577116	N
26:43	577390	N
26:44	577639	N
26:45	577891	N
26:46	578234	N
26:46	578482	N
26:47	578781	N
26:48	578971	N
26:48	579159	N
26:49	579437	N
26:50	579750	N
26:51	580081	N
26:52	580339	N
26:52	580586	N
26:53	580728	N
26:53	580997	N
26:54	581183	N
26:54	581398	N
26:55	581696	N
26:56	581923	N
26:57	582199	N
26:57	582374	N
26:58	582527	N
26:58	582666	N
26:58	582835	N
26:59	583058	N
27:00	583267	N
27:00	583486	N
27:01	583693	N
27:02	584052	N
27:03	584317	N
27:03	584617	N
27:04	584878	N
27:05	585079	N
27:05	585308	N
27:06	585467	N
27:06	585620	N
27:07	585815	N
27:07	586039	N
27:08	586257	N
27:09	586522	N
27:09	586702	N
27:10	586872	N
27:10	587133	N
27:11	587296	N
27:12	587590	N
27:12	587798	N
27:13	588044	N
27:14	588390	N
27:15	588717	N
27:16	589041	N
27:16	589313	N
27:17	589542	N
27:18	589752	N
27:18	589970	N
27:19	590313	N
27:20	590572	N
27:21	590790	N
27:21	591050	N
27:22	591219	N
27:23	591536	N
27:23	591754	N
27:24	591985	N
27:25	592233	N
27:26	592621	N
27:26	592891	N
27:27	593144	N
27:28	593422	N
27:29	593667	N
27:29	593860	N
27:30	594098	N
27:30	594267	N
27:31	594474	N
27:31	594715	N
27:32	595055	N
27:33	595279	N
27:34	595479	N
27:35	595810	N
27:35	596019	N
27:36	596278	N
27:36	596503	N
27:37	596712	N
27:37	596849	N
27:38	597144	N
27:39	597412	N
27:40	597663	N
27:40	597956	N
27:41	598228	N
27:42	598431	N
27:43	598682	N
27:43	598851	N
27:44	599194	N
27:44	599389	N
27:45	599626	N
27:46	599796	N
27:46	600067	N
27:47	600355	N
27:48	600611	N
27:48	600828	N
27:49	601091	N
27:50	601465	N
27:51	601725	N
27:52	601957	N
27:52	602213	N
27:53	602371	N
27:54	602664	N
27:54	602893	N
27:55	603153	N
27:56	603460	N
27:56	603659	N
27:57	604003	N
27:58	604211	N
27:58	604406	N
27:59	604667	N
28:00	604890	N
28:00	605015	a
28:01	605259	N
28:01	605431	N
28:02	605688	N
28:03	605956	N
28:03	606223	N
28:04	606564	N
28:05	606775	N
28:06	607045	N
28:06	607267	N
28:07	607465	N
28:07	607658	N
28:08	607855	N
28:09	608185	N
28:09	608359	N
28:10	608555	N
28:11	608831	N
28:11	609070	N
28:12	609267	N
28:13	609527	N
28:13	609750	N
28:14	609905	N
28:14	610157	N
28:15	610398	N
28:16	610692	N
28:17	611084	N
28:18	611296	N
28:18	611475	N
28:19	611724	N
28:19	611981	N
28:20	612159	N
28:21	612382	N
28:21	612690	N
28:22	612991	N
28:23	613181	N
28:23	613400	N
28:24	613577	N
28:25	613801	N
28:25	614036	N
28:26	614210	N
28:26	614509	N
28:27	614827	N
28:28	615114	N
28:29	615404	N
28:30	615686	N
28:30	615934	N
28:31	616255	N
28:32	616511	N
28:33	616757	N
28:33	616983	N
28:34	617168	N
28:35	617451	N
28:35	617739	N
28:36	618041	N
28:37	618218	N
28:38	618521	N
28:38	618686	N
28:39	619005	N
28:40	619344	N
28:40	619540	N
28:41	619840	N
28:42	620085	N
28:43	620312	N
28:43	620619	N
28:44	620830	N
28:45	621029	N
28:45	621347	N
28:46	621619	N
28:47	621911	N
28:48	622144	N
28:49	622446	N
28:49	622690	N
28:50	622861	N
28:50	623084	N
28:51	623337	N
28:52	623595	N
28:52	623853	N
28:53	624034	N
28:54	624375	N
28:54	624548	N
28:55	624755	N
28:55	624896	N
28:56	625039	N
28:56	625202	N
28:57	625446	N
28:57	625634	N
28:58	625917	N
28:59	626174	N
29:00	626551	N
29:00	626754	N
29:01	626957	N
29:02	627154	N
29:02	627370	N
29:03	627645	N
29:04	627865	N
29:04	628096	N
29:05	628305	N
29:05	628509	N
29:06	628783	N
29:07	629024	N
29:08	629349	N
29:08	629564	N
29:09	629848	N
29:10	630195	N
29:11	630428	N
29:11	630689	N
29:12	630874	N
29:13	631134	N
29:13	631315	N
29:14	631474	N
29:14	631695	N
29:15	631890	N
29:15	632060	N
29:16	632318	N
29:16	632480	N
29:17	632618	N
29:17	632821	N
29:18	633117	N
29:19	633358	N
29:20	633614	N
29:20	633943	N
29:21	634156	N
29:22	634423	N
29:22	634658	N
29:23	634934	N
29:24	635207	N
29:25	635434	N
29:25	635755	N
29:27	636130	N
29:27	636319	N
29:28	636610	N
29:28	636831	N
29:29	636965	N
29:30	637241	N
29:30	637472	N
29:31	637659	N
29:31	637813	N
29:32	638079	N
29:33	638364	N
29:34	638642	N
29:34	638924	N
29:35	639082	N
29:35	639298	N
29:36	639644	N
29:37	639872	N
29:38	640138	N
29:39	640463	N
29:39	640735	N
29:40	640952	N
29:41	641211	N
29:41	641357	N
29:42	641623	N
29:42	641851	N
29:43	642070	N
29:44	642276	N
29:44	642580	N
29:45	642894	N
29:46	643106	N
29:47	643387	N
29:47	643634	N
29:48	643836	N
29:48	644018	N
29:49	644310	N
29:50	644524	N
29:50	644721	N
29:51	645024	N
29:52	645292	N
29:53	645604	N
29:54	645895	N
29:55	646307	N
29:55	646460	N
29:56	646591	N
29:56	646856	N
29:57	647036	N
29:58	647308	N
29:58	647634	N
29:59	647860	N
30:00	648124	N
30:00	648345	N
30:01	648557	N
30:02	648723	N
30:03	649092	N
30:03	649342	N
30:04	649615	N
30:05	649877	N
