0:00	24	~
0:00	99	N
0:01	431	N
0:01	660	N
0:02	862	N
0:02	1002	N
0:03	1270	N
0:04	1483	N
0:04	1719	N
0:05	1874	N
0:05	2102	N
0:06	2251	V
0:06	2368	V
0:06	2518	N
0:07	2659	N
0:07	2792	N
0:08	2933	N
0:08	3128	N
0:09	3333	N
0:09	3464	N
0:09	3584	~
0:10	3714	N
0:10	3853	V
0:11	3993	N
0:11	4236	N
0:12	4540	V
0:13	4722	N
0:13	4859	N
0:14	5082	N
0:14	5247	N
0:15	5434	N
0:15	5649	N
0:16	5794	N
0:16	6030	N
0:17	6200	N
0:17	6434	N
0:18	6711	N
0:19	6944	N
0:20	7279	N
0:21	7587	N
0:21	7750	N
0:21	7882	N
0:22	8154	N
0:23	8312	N
0:23	8541	N
0:24	8876	N
0:25	9114	N
0:25	9294	N
0:26	9432	N
0:26	9672	N
0:27	9951	N
0:28	10168	N
0:29	10497	N
0:30	10830	N
0:30	11081	N
0:31	11342	N
0:32	11653	N
0:32	11858	N
0:33	12018	N
0:34	12277	N
0:34	12526	N
0:35	12755	N
0:36	12991	N
0:36	13198	N
0:37	13540	N
0:38	13777	N
0:38	14015	N
0:39	14290	N
0:40	14589	N
0:41	14786	N
0:41	14926	N
0:42	15243	N
0:42	15435	N
0:43	15630	N
0:44	15847	~
0:44	15930	N
0:44	16069	V
0:45	16306	N
0:46	16599	N
0:46	16689	+
0:46	16726	V
0:46	16858	V
0:47	16976	V
0:47	17156	+
0:47	17274	N
0:48	17429	V
0:49	17651	N
0:49	17814	~
0:49	17922	N
0:50	18229	N
0:51	18434	N
0:51	18641	N
0:52	18911	N
0:53	19116	N
0:53	19259	N
0:53	19393	N
0:54	19742	N
0:55	19894	V
0:55	20101	N
0:56	20295	N
0:56	20454	N
0:57	20582	N
0:57	20709	N
0:58	20898	N
0:58	21033	N
0:58	21158	N
0:59	21279	N
0:59	21408	N
1:00	21706	N
1:00	21861	V
1:01	21974	V
1:01	22140	N
1:01	22258	V
1:02	22388	N
1:02	22514	N
1:02	22650	N
1:03	22768	N
1:03	22884	N
1:04	23263	N
1:04	23397	V
1:05	23641	N
1:06	23770	V
1:06	24074	N
1:07	24226	N
1:07	24362	N
1:08	24490	N
1:08	24725	N
1:09	24884	N
1:09	25002	N
1:10	25301	N
1:10	25441	V
1:11	25674	N
1:12	26001	N
1:13	26301	N
1:13	26449	V
1:13	26590	V
1:14	26820	N
1:14	26973	N
1:15	27217	N
1:16	27518	N
1:17	27828	N
1:17	27972	V
1:18	28218	N
1:19	28452	N
1:19	28637	N
1:20	28862	N
1:20	29025	N
1:21	29341	N
1:21	29519	N
1:22	29785	N
1:23	30062	N
1:24	30280	N
1:24	30591	N
1:25	30743	V
1:26	31009	N
1:26	31249	N
1:27	31578	N
1:28	31850	N
1:28	32009	N
1:29	32243	N
1:30	32516	N
1:30	32729	N
1:31	32985	N
1:31	33033	+
1:32	33132	V
1:32	33269	V
1:32	33405	V
1:33	33602	+
1:33	33764	N
1:34	33895	V
1:34	34176	~
1:35	34287	N
1:35	34440	a
1:36	34583	N
1:36	34723	N
1:37	34986	N
1:37	35139	V
1:37	35263	V
1:38	35533	N
1:39	35664	a
1:39	35792	N
1:39	35930	N
1:40	36079	N
1:40	36296	N
1:41	36496	|
1:41	36556	N
1:41	36678	V
1:42	36772	|
1:42	36920	N
1:42	37064	N
1:43	37296	N
1:43	37404	~
1:44	37542	N
1:44	37769	N
1:45	37837	+
1:45	37895	V
1:45	38000	V
1:45	38120	V
1:46	38291	+
1:46	38394	N
1:47	38635	N
1:47	38870	N
1:48	39002	V
1:48	39126	V
1:49	39272	N
1:49	39471	N
1:50	39655	N
1:50	39781	N
1:50	39925	N
1:51	40044	N
1:51	40260	N
1:52	40390	N
1:53	40704	N
1:53	40833	V
1:54	41243	N
1:54	41394	V
1:55	41660	N
1:56	41813	N
1:57	42128	N
1:57	42437	N
1:58	42659	N
1:59	42914	N
1:59	43053	N
2:00	43401	N
2:00	43555	N
2:01	43686	N
2:01	43842	N
2:02	43988	N
2:02	44224	N
2:03	44458	N
2:03	44625	N
2:04	44758	N
2:04	44885	N
2:05	45034	N
2:05	45153	N
2:05	45289	N
2:06	45567	N
2:06	45708	V
2:07	45996	N
2:08	46117	V
2:08	46336	N
2:09	46460	N
2:09	46733	N
2:10	46859	V
2:10	47062	N
2:11	47236	N
2:11	47348	N
2:12	47595	N
2:13	48028	N
2:13	48196	V
2:14	48402	N
2:15	48738	N
2:16	49061	N
2:16	49189	V
2:17	49420	N
2:17	49559	N
2:18	49689	N
2:18	49938	N
2:19	50121	N
2:20	50450	N
2:20	50745	N
2:21	51055	N
2:22	51187	V
2:22	51304	N
2:22	51430	N
2:23	51655	N
2:24	51907	N
2:24	52179	N
2:25	52486	N
2:27	52934	N
2:27	53170	N
2:28	53355	N
2:29	53748	N
2:30	54132	N
2:30	54330	N
2:31	54472	N
2:32	54746	N
2:32	54924	N
2:33	55141	N
2:33	55423	N
2:34	55672	N
2:35	55809	N
2:35	55978	N
2:36	56231	N
2:36	56370	V
2:36	56503	V
2:37	56843	N
2:38	57005	V
2:39	57269	N
2:39	57527	N
2:40	57798	N
2:41	58086	N
2:42	58345	N
2:42	58580	N
2:43	58817	N
2:44	59053	N
2:44	59365	N
2:45	59632	N
2:46	59896	N
2:46	60103	N
2:47	60417	N
2:48	60612	N
2:48	60809	N
2:49	60966	N
2:50	61210	N
2:50	61496	N
2:51	61692	N
2:51	61906	N
2:52	62116	N
2:53	62280	N
2:53	62515	N
2:54	62786	N
2:55	63072	N
2:55	63256	N
2:56	63544	N
2:57	63747	N
2:57	63890	N
2:57	64010	N
2:58	64132	N
2:58	64353	N
2:59	64608	N
3:00	64853	N
3:00	65065	N
3:01	65341	N
3:02	65610	N
3:02	65877	N
3:03	66044	N
3:03	66211	N
3:04	66460	N
3:05	66691	N
3:05	66888	N
3:06	67061	N
3:06	67207	N
3:07	67327	N
3:07	67491	N
3:08	67778	N
3:08	67954	N
3:09	68102	N
3:09	68381	N
3:10	68624	N
3:11	68874	N
3:12	69150	N
3:12	69404	N
3:13	69633	N
3:14	69888	N
3:14	70026	V
3:15	70261	N
3:15	70525	N
3:16	70742	N
3:17	70996	N
3:17	71140	V
3:18	71392	N
3:18	71620	N
3:19	71925	N
3:20	72091	N
3:20	72358	N
3:21	72519	N
3:22	72760	N
3:22	72960	N
3:23	73172	N
3:23	73393	N
3:24	73651	N
3:25	73827	N
3:25	74049	N
3:26	74212	N
3:26	74416	N
3:27	74769	N
3:28	74925	N
3:28	75153	N
3:29	75480	N
3:30	75752	N
3:30	75950	N
3:31	76108	N
3:31	76257	N
3:32	76509	N
3:33	76705	N
3:33	76991	N
3:34	77149	N
3:34	77267	N
3:35	77566	N
3:35	77732	V
3:36	78112	N
3:37	78269	V
3:38	78554	N
3:38	78818	N
3:39	78951	V
3:40	79285	N
3:40	79447	V
3:41	79797	N
3:42	80070	N
3:43	80306	N
3:43	80440	V
3:43	80575	V
3:44	80998	N
3:45	81125	V
3:46	81384	N
3:46	81643	N
3:47	81870	N
3:48	82131	N
3:48	82395	N
3:49	82669	N
3:50	82972	N
3:51	83172	N
3:51	83357	V
3:52	83686	N
3:53	83889	N
3:53	84049	N
3:54	84295	N
3:54	84564	N
3:55	84815	N
3:56	85108	N
3:57	85322	N
3:57	85452	N
3:57	85592	N
3:58	85834	N
3:59	86051	N
3:59	86292	N
4:00	86491	N
4:01	86812	N
4:01	87090	N
4:02	87322	N
4:03	87614	N
4:04	87868	N
4:04	88127	N
4:05	88378	N
4:05	88536	N
4:06	88787	N
4:07	89009	N
4:07	89238	N
4:08	89459	V
4:09	89662	N
4:09	89791	N
4:09	89930	N
4:10	90073	N
4:10	90195	N
4:10	90305	N
4:11	90513	N
4:12	90782	N
4:13	91084	N
4:13	91386	N
4:14	91626	N
4:14	91766	V
4:15	91883	V
4:15	92118	N
4:16	92276	N
4:17	92633	N
4:17	92787	V
4:18	93193	N
4:19	93431	N
4:20	93664	N
4:20	93957	N
4:21	94091	V
4:21	94249	N
4:22	94462	N
4:22	94670	N
4:23	94991	N
4:24	95282	N
4:25	95638	N
4:26	95814	N
4:26	95938	N
4:27	96256	N
4:27	96417	V
4:28	96747	N
4:28	96818	+
4:29	96885	V
4:29	97019	V
4:29	97151	V
4:30	97315	+
4:30	97395	N
4:31	97637	N
4:32	97930	N
4:32	98150	N
4:33	98412	N
4:34	98697	N
4:34	98851	N
4:34	98980	N
4:35	99113	N
4:35	99245	N
4:36	99662	N
4:37	99807	V
4:38	100167	N
4:38	100315	V
4:39	100444	V
4:39	100693	N
4:40	101119	N
4:41	101286	V
4:42	101522	N
4:42	101776	N
4:43	102048	N
4:44	102308	N
4:45	102629	N
4:45	102853	N
4:46	103108	N
4:46	103243	V
4:47	103512	N
4:47	103660	V
4:48	103783	V
4:48	104017	N
4:49	104204	N
4:50	104521	N
4:50	104704	N
4:51	105105	N
4:52	105261	V
4:53	105585	N
4:53	105822	N
4:54	106011	N
4:55	106260	N
4:55	106410	V
4:56	106649	N
4:56	106872	N
4:57	107105	N
4:58	107386	N
4:59	107653	N
4:59	107841	N
4:59	107973	N
5:00	108206	N
5:01	108475	N
5:01	108537	+
5:01	108616	V
5:02	108747	V
5:02	108858	V
5:02	108985	V
5:02	109079	+
5:03	109110	N
5:03	109293	+
5:03	109377	V
5:04	109526	V
5:04	109632	V
5:04	109779	V
5:05	109919	V
5:05	110045	V
5:05	110153	V
5:06	110316	V
5:06	110455	V
5:07	110710	+
5:07	110807	N
5:08	110959	V
5:08	111223	N
5:09	111368	V
5:09	111520	N
5:10	111742	N
5:10	111872	V
5:11	111996	V
5:11	112138	N
5:12	112410	N
5:13	112748	N
5:13	112938	N
5:14	113259	N
5:15	113445	N
5:15	113684	N
5:16	113821	V
5:16	114100	N
5:17	114352	N
5:18	114603	N
5:18	114764	N
5:19	115034	N
5:20	115299	N
5:20	115474	N
5:21	115741	N
5:22	116010	N
5:23	116284	N
5:23	116431	V
5:23	116585	N
5:24	116730	N
5:25	117007	N
5:25	117279	N
5:26	117525	N
5:27	117734	N
5:27	117868	N
5:27	118012	N
5:28	118236	N
5:28	118378	N
5:29	118541	N
5:29	118764	N
5:30	119039	N
5:31	119299	N
5:32	119642	N
5:33	119918	N
5:33	120185	N
5:34	120363	N
5:35	120608	N
5:35	120856	N
5:36	121024	N
5:36	121271	N
5:37	121549	N
5:38	121713	N
5:38	121845	N
5:39	122076	N
5:39	122392	N
5:40	122530	V
5:40	122660	V
5:41	123038	N
5:42	123196	V
5:42	123462	N
5:43	123622	N
5:43	123757	N
5:44	123894	N
5:44	124025	N
5:45	124265	N
5:45	124447	N
5:46	124684	N
5:47	125015	N
5:47	125215	N
5:48	125355	N
5:49	125735	N
5:49	125910	V
5:50	126169	N
5:51	126398	N
5:51	126605	N
5:52	126911	N
5:52	127056	V
5:53	127238	N
5:53	127415	N
5:54	127650	N
5:55	127969	N
5:56	128195	N
5:56	128484	N
5:57	128723	N
5:57	128852	V
5:58	128983	N
5:58	129098	N
5:58	129218	N
5:59	129464	N
5:59	129597	V
6:00	129853	N
6:01	130252	N
6:02	130501	N
6:03	130857	N
6:04	131106	N
6:04	131344	N
6:05	131758	N
6:06	132031	N
6:07	132364	N
6:08	132646	N
6:09	132968	N
6:10	133202	N
6:10	133555	N
6:11	133848	N
6:12	134074	N
6:13	134406	N
6:13	134626	N
6:14	134818	N
6:15	135057	N
6:15	135293	N
6:16	135615	N
6:17	135781	V
6:17	135887	V
6:18	136299	N
6:19	136464	V
6:19	136679	N
6:20	136814	V
6:20	137044	N
6:21	137223	N
6:21	137353	N
6:21	137472	N
6:22	137697	N
6:22	137855	N
6:23	138004	N
6:24	138242	N
6:24	138386	N
6:24	138504	N
6:25	138772	N
6:26	139045	N
6:26	139172	V
6:27	139436	N
6:27	139637	N
6:28	139810	N
6:28	140039	N
6:29	140288	N
6:30	140400	~
6:30	140570	N
6:31	140888	N
6:32	141168	N
6:32	141384	~
6:33	141483	N
6:33	141708	|
6:33	141768	N
6:34	142024	N
6:35	142310	N
6:35	142529	N
6:36	142799	N
6:37	143056	N
6:37	143234	N
6:38	143450	N
6:38	143590	V
6:39	143848	N
6:40	144124	N
6:40	144315	N
6:41	144537	N
6:41	144699	N
6:42	144930	N
6:43	145084	V
6:43	145320	N
6:44	145524	N
6:44	145654	N
6:44	145774	N
6:45	145917	N
6:45	146047	N
6:46	146168	N
6:46	146291	N
6:46	146440	N
6:47	146757	N
6:48	147025	N
6:49	147266	N
6:49	147495	N
6:50	147752	N
6:50	147895	V
6:51	148012	V
6:51	148131	N
6:52	148438	N
6:52	148567	V
6:53	148743	~
6:53	148773	N
6:53	148915	N
6:54	149177	N
6:54	149342	V
6:55	149574	N
6:56	149855	N
6:57	150177	N
6:57	150384	N
6:58	150564	N
6:58	150698	N
6:59	150960	N
7:00	151210	N
7:00	151463	N
7:01	151803	N
7:02	152139	N
7:03	152326	N
7:03	152531	N
7:04	152774	N
7:05	153038	N
7:05	153325	N
7:06	153477	V
7:06	153597	V
7:06	153701	~
7:07	153858	N
7:08	154123	N
7:08	154267	V
7:08	154399	V
7:09	154617	N
7:10	154866	N
7:10	155013	N
7:11	155263	N
7:11	155489	N
7:13	155880	N
7:13	156097	N
7:14	156443	N
7:15	156709	N
7:15	156950	N
7:16	157206	N
7:17	157362	N
7:18	157721	N
7:18	157869	V
7:19	158103	N
7:19	158357	N
7:20	158609	N
7:21	158866	N
7:21	159007	V
7:22	159143	N
7:22	159456	N
7:23	159610	V
7:24	159862	N
7:25	160201	N
7:25	160408	N
7:26	160685	N
7:26	160830	V
7:27	160955	N
7:27	161193	N
7:28	161340	V
7:28	161599	N
7:29	161740	V
7:29	161888	N
7:30	162033	N
7:30	162314	N
7:31	162534	N
7:32	162929	N
7:32	163079	V
7:33	163333	N
7:34	163470	V
7:34	163696	N
7:35	164028	N
7:36	164222	N
7:36	164470	N
7:37	164709	N
7:38	164942	N
7:38	165136	N
7:39	165276	N
7:39	165560	N
7:40	165715	V
7:40	165930	N
7:41	166229	N
7:42	166532	N
7:43	166897	N
7:44	167059	V
7:45	167423	N
7:45	167742	N
7:46	168009	N
7:47	168151	V
7:47	168326	N
7:48	168631	N
7:48	168827	N
7:49	169007	N
7:49	169151	N
7:50	169291	N
7:50	169424	N
7:50	169553	N
7:51	169807	N
7:52	169952	V
7:52	170229	N
7:53	170404	V
7:53	170633	N
7:54	170770	N
7:54	170892	N
7:55	171176	N
7:55	171319	V
7:56	171639	N
7:57	171810	N
7:57	171964	N
7:58	172163	N
7:59	172460	N
7:59	172661	N
7:59	172795	N
8:00	172950	N
8:00	173081	N
8:01	173233	N
8:01	173301	~
8:02	173563	N
8:02	173712	V
8:02	173851	N
8:03	174091	N
8:04	174343	N
8:05	174608	N
8:05	174873	N
8:06	175028	N
8:06	175221	N
8:07	175521	N
8:08	175726	N
8:08	175980	N
8:09	176224	N
8:10	176450	N
8:10	176701	~
8:11	176775	N
8:11	177029	N
8:12	177255	N
8:12	177414	N
8:13	177676	N
8:14	177882	N
8:14	178032	N
8:15	178277	N
8:15	178411	V
8:15	178550	N
8:16	178799	N
8:17	178983	N
8:17	179233	N
8:18	179379	V
8:18	179527	N
8:19	179668	N
8:19	179805	N
8:20	180048	N
8:20	180200	V
8:21	180369	N
8:21	180577	N
8:22	180855	N
8:22	181035	N
8:23	181158	N
8:23	181301	N
8:24	181528	N
8:24	181764	N
8:25	182113	N
8:26	182260	V
8:27	182606	N
8:28	182880	N
8:28	183131	N
8:29	183265	V
8:29	183404	N
8:29	183536	N
8:30	183839	N
8:30	183892	+
8:31	183995	V
8:31	184123	V
8:31	184249	V
8:32	184354	+
8:32	184391	N
8:33	184699	N
8:33	184829	V
8:34	185061	N
8:34	185330	N
8:35	185655	N
8:36	185825	V
8:37	186127	N
8:37	186465	~
8:38	186539	N
8:38	186688	V
8:39	186961	N
8:39	187158	N
8:40	187424	N
8:41	187597	N
8:41	187849	N
8:42	188154	N
8:43	188437	N
8:44	188894	N
8:45	189288	N
8:46	189472	N
8:47	189727	N
8:47	189878	V
8:47	189997	V
8:48	190273	N
8:49	190592	N
8:50	190828	N
8:50	191083	N
8:51	191299	N
8:51	191442	N
8:52	191593	N
8:52	191842	N
8:53	191899	~
8:53	191976	V
8:53	192101	V
8:54	192306	N
8:55	192688	N
8:55	192922	N
8:56	193085	N
8:56	193304	N
8:57	193491	N
8:57	193604	V
8:58	193732	~
8:58	193886	N
8:59	194114	N
8:59	194260	N
9:00	194405	N
9:00	194537	N
9:00	194670	N
9:01	194873	N
9:02	195146	N
9:02	195288	V
9:03	195552	N
9:03	195798	N
9:04	195987	N
9:04	196194	N
9:05	196421	N
9:05	196556	N
9:06	196685	N
9:07	196980	N
9:07	197121	V
9:08	197359	N
9:08	197623	N
9:09	197873	N
9:10	198012	N
9:10	198153	N
9:10	198284	N
9:11	198524	N
9:11	198664	V
9:12	198816	N
9:12	199019	N
9:12	199072	~
9:13	199150	Q
9:13	199185	~
9:14	199777	~
9:15	199816	N
9:15	200021	N
9:16	200256	N
9:16	200391	~
9:16	200518	N
9:17	200777	N
9:18	200977	N
9:18	201184	N
9:19	201454	N
9:20	201658	N
9:20	201835	N
9:21	202007	N
9:21	202312	N
9:22	202510	N
9:23	202721	N
9:23	202873	N
9:23	203014	N
9:24	203210	N
9:25	203406	N
9:25	203623	N
9:26	203843	N
9:26	204033	N
9:27	204201	N
9:27	204448	N
9:28	204581	V
9:28	204762	N
9:29	205034	N
9:30	205268	N
9:30	205518	N
9:31	205750	N
9:32	206006	N
9:32	206160	V
9:33	206400	N
9:33	206541	V
9:34	206766	N
9:34	206936	N
9:35	207177	N
9:35	207343	N
9:36	207489	N
9:37	207791	N
9:37	207936	V
9:38	208197	N
9:39	208548	N
9:40	208806	N
9:40	209037	N
9:41	209280	N
9:41	209509	N
9:42	209679	N
9:42	209771	~
9:43	209938	N
9:43	210163	N
9:44	210305	N
9:44	210579	N
9:45	210714	V
9:45	210848	N
9:46	211024	|
9:46	211127	~
9:46	211201	N
9:47	211328	V
9:48	211712	N
9:48	211871	V
9:49	212196	N
9:49	212392	N
9:50	212611	N
9:50	212751	N
9:51	212873	N
9:52	213179	N
9:52	213330	V
9:53	213608	N
9:53	213752	V
9:54	213889	V
9:54	214150	N
9:55	214442	N
9:56	214711	N
9:57	214951	N
9:57	215210	~
9:57	215261	N
9:58	215399	V
9:59	215643	N
9:59	215882	N
10:00	216019	N
10:00	216159	N
10:01	216429	N
10:01	216654	N
10:02	216796	N
10:02	216996	N
10:03	217123	V
10:03	217273	N
10:04	217476	N
10:04	217723	N
10:05	217889	~
10:05	217954	N
10:06	218193	N
10:06	218418	N
10:07	218583	N
10:07	218819	N
10:08	218977	N
10:08	219199	N
10:09	219450	N
10:09	219586	V
10:10	219859	N
10:11	220111	N
10:12	220372	N
10:12	220613	N
10:13	220754	V
10:13	220870	V
10:13	221020	N
10:14	221208	N
10:15	221430	N
10:15	221588	N
10:16	221804	N
10:16	222018	~
10:16	222072	N
10:17	222246	N
10:18	222509	N
10:18	222781	N
10:18	222810	~
10:19	222917	V
10:19	223036	V
10:20	223345	N
10:20	223489	V
10:21	223698	N
10:21	223891	N
10:22	224091	N
10:23	224338	N
10:23	224433	~
10:23	224551	N
10:24	224745	N
10:24	224985	N
10:25	225213	N
10:26	225635	N
10:27	225784	V
10:28	226131	N
10:28	226374	N
10:29	226510	V
10:29	226626	V
10:29	226787	N
10:30	226907	V
10:31	227190	N
10:31	227381	N
10:32	227538	N
10:32	227818	N
10:33	227951	V
10:33	228192	N
10:34	228314	V
10:34	228558	N
10:35	228822	N
10:36	229093	N
10:36	229240	N
10:37	229437	N
10:37	229569	V
10:38	229819	N
10:39	230042	N
10:39	230226	N
10:39	230332	N
10:40	230491	N
10:40	230745	N
10:41	230832	+
10:41	230878	V
10:41	230984	V
10:41	231110	V
10:42	231247	V
10:42	231406	+
10:42	231474	N
10:43	231676	N
10:44	231996	N
10:45	232203	N
10:45	232324	N
10:45	232475	N
10:46	232798	N
10:47	232941	V
10:47	233195	N
10:48	233428	N
10:49	233644	N
10:49	233801	N
10:50	234038	N
10:50	234175	V
10:50	234303	N
10:51	234435	N
10:51	234692	N
10:52	234833	V
10:53	235110	N
10:53	235304	N
10:54	235555	N
10:55	235802	N
10:55	236095	N
10:56	236227	V
10:56	236358	V
10:57	236704	N
10:58	236988	N
10:59	237257	N
10:59	237451	N
11:00	237659	N
11:00	237896	N
11:01	238186	N
11:02	238387	N
11:02	238525	N
11:03	238758	N
11:04	239046	N
11:04	239281	N
11:05	239461	N
11:05	239662	N
11:06	239931	N
11:07	240190	N
11:07	240257	+
11:07	240325	V
11:08	240523	N
11:08	240753	N
11:09	240886	V
11:09	241165	N
11:10	241400	N
11:10	241533	V
11:11	241610	+
11:11	241688	N
11:11	241876	|
11:12	241947	N
11:12	242262	N
11:13	242630	N
11:14	242898	N
11:15	243161	N
11:16	243410	N
11:16	243617	N
11:17	243744	N
11:17	243872	N
11:18	244129	N
11:18	244312	N
11:19	244624	N
11:20	244883	N
11:20	245105	N
11:21	245340	N
11:22	245594	N
11:22	245758	N
11:23	246055	N
11:24	246266	N
11:24	246425	N
11:25	246653	N
11:25	246806	N
11:26	247009	N
11:26	247221	N
11:27	247491	N
11:27	247628	V
11:28	247911	N
11:29	248130	N
11:29	248277	N
11:30	248426	N
11:30	248734	N
11:31	248985	N
11:31	249109	V
11:32	249358	N
11:33	249503	N
11:33	249735	N
11:34	249956	N
11:34	250189	N
11:35	250358	N
11:35	250516	N
11:36	250706	N
11:36	250853	N
11:37	250987	N
11:37	251170	N
11:38	251326	N
11:38	251467	N
11:39	251674	N
11:39	251795	V
11:39	251991	N
11:40	252239	N
11:41	252432	N
11:41	252580	N
11:41	252713	N
11:42	252951	N
11:43	253093	V
11:43	253296	N
11:44	253494	N
11:44	253751	N
11:45	253981	N
11:45	254116	N
11:46	254250	N
11:46	254514	N
11:47	254845	N
11:48	255014	V
11:49	255268	N
11:49	255529	N
11:50	255603	+
11:50	255654	V
11:50	255766	V
11:50	255886	V
11:51	256022	+
11:51	256093	N
11:52	256333	N
11:52	256627	N
11:53	256794	N
11:53	257032	N
11:54	257175	V
11:55	257436	N
11:55	257577	V
11:56	257866	N
11:56	258017	V
11:56	258112	V
11:57	258293	N
11:58	258517	N
11:58	258642	V
11:59	258872	N
11:59	259002	V
12:00	259285	N
12:00	259497	N
12:01	259702	N
12:01	259847	N
12:02	260037	N
12:02	260234	N
12:03	260401	N
12:03	260588	N
12:04	260846	N
12:04	260998	N
12:05	261214	N
12:06	261367	N
12:06	261504	N
12:07	261749	N
12:07	262059	N
12:08	262185	V
12:08	262284	V
12:09	262462	N
12:09	262674	N
12:10	262827	N
12:10	262896	|
12:10	263042	N
12:11	263250	N
12:11	263519	N
12:12	263742	N
12:13	263990	N
12:13	264128	V
12:14	264382	N
12:14	264578	N
12:15	264793	N
12:16	264986	N
12:16	265143	N
12:16	265263	N
12:17	265403	N
12:17	265581	N
12:18	265851	N
12:19	266096	N
12:19	266327	N
12:20	266547	N
12:21	266809	N
12:21	266869	+
12:21	266935	V
12:21	267025	V
12:22	267152	V
12:22	267283	V
12:22	267422	+
12:23	267523	N
12:23	267650	V
12:24	267909	N
12:24	268015	~
12:24	268118	N
12:25	268381	N
12:25	268530	N
12:26	268837	N
12:27	269092	N
12:27	269218	V
12:28	269331	V
12:28	269455	N
12:29	269679	N
12:29	269882	N
12:30	270056	N
12:30	270279	N
12:31	270474	N
12:31	270675	N
12:32	270795	V
12:32	270926	N
12:33	271102	N
12:33	271372	N
12:34	271497	V
12:34	271624	N
12:35	271858	N
12:35	271997	V
12:36	272212	N
12:36	272513	N
12:37	272787	N
12:37	272866	+
12:38	272920	V
12:38	273045	V
12:38	273157	V
12:39	273277	V
12:39	273375	+
12:39	273531	N
12:40	273705	N
12:40	273952	N
12:41	274079	V
12:41	274313	N
12:42	274572	N
12:43	274790	N
12:43	274990	N
12:44	275063	|
12:44	275229	N
12:44	275356	V
12:45	275467	V
12:45	275589	N
12:45	275740	N
12:46	275862	V
12:47	276150	N
12:47	276283	V
12:48	276483	N
12:48	276672	N
12:49	276887	N
12:49	277053	N
12:50	277246	N
12:50	277453	N
12:51	277674	N
12:51	277889	N
12:52	278028	N
12:52	278139	N
12:52	278273	N
12:53	278500	N
12:54	278738	N
12:54	278868	V
12:55	279006	N
12:55	279154	~
12:55	279286	N
12:56	279430	N
12:56	279543	N
12:57	279734	N
12:57	279909	N
12:58	280134	N
12:58	280407	N
12:59	280639	N
13:00	280934	N
13:00	281119	N
13:01	281369	N
13:01	281447	+
13:01	281505	V
13:02	281621	V
13:02	281747	V
13:03	281897	+
13:03	281968	N
13:03	282200	N
13:04	282373	N
13:04	282508	N
13:05	282658	N
13:05	282823	N
13:06	283068	N
13:06	283237	N
13:07	283459	N
13:07	283614	N
13:08	283731	N
13:08	283866	N
13:09	284108	N
13:09	284332	N
13:10	284599	N
13:11	284861	N
13:11	285007	N
13:12	285135	N
13:12	285314	N
13:13	285491	N
13:13	285624	N
13:13	285754	N
13:14	285958	N
13:14	286104	N
13:15	286308	N
13:15	286552	N
13:16	286669	V
13:16	286800	N
13:17	287008	N
13:17	287130	V
13:17	287256	V
13:18	287483	N
13:19	287818	N
13:19	287949	V
13:20	288072	V
13:20	288305	N
13:21	288474	N
13:22	288741	N
13:22	288960	N
13:22	289066	V
13:23	289354	N
13:24	289512	N
13:24	289710	N
13:25	289998	N
13:25	290143	N
13:26	290379	N
13:27	290555	N
13:27	290724	N
13:28	291050	N
13:28	291182	V
13:29	291441	N
13:30	291747	N
13:30	291959	N
13:31	292138	N
13:32	292457	N
13:32	292631	N
13:33	292754	N
13:33	292860	N
13:33	293005	N
13:34	293279	N
13:35	293408	V
13:35	293607	N
13:35	293727	N
13:36	293937	N
13:36	294063	V
13:37	294201	N
13:38	294538	N
13:38	294675	V
13:39	294921	N
13:39	295135	N
13:40	295401	N
13:40	295548	N
13:41	295736	N
13:42	295988	N
13:42	296168	N
13:43	296308	N
13:43	296433	N
13:43	296557	N
13:44	296839	N
13:44	296986	N
13:45	297095	N
13:45	297231	N
13:46	297446	N
13:46	297656	N
13:47	297918	N
13:48	298174	N
13:48	298412	N
13:49	298488	~
13:49	298560	N
13:49	298681	N
13:49	298799	N
13:50	299046	N
13:50	299148	~
13:51	299291	N
13:51	299459	N
13:52	299617	N
13:52	299828	N
13:53	300120	N
13:54	300276	N
13:54	300498	N
13:55	300762	N
13:56	300969	N
13:56	301134	N
13:57	301355	N
13:57	301408	~
13:57	301498	N
13:57	301626	N
13:58	301745	N
13:58	301893	N
13:59	302146	N
13:59	302290	N
13:59	302363	~
14:00	302431	N
14:00	302653	N
14:01	302804	V
14:02	303168	N
14:02	303308	V
14:03	303522	N
14:03	303737	N
14:04	303856	N
14:04	304027	N
14:05	304226	N
14:05	304495	N
14:06	304699	N
14:06	304840	N
14:07	305024	N
14:07	305157	N
14:08	305381	N
14:09	305736	N
14:09	305985	N
14:10	306272	N
14:11	306612	N
14:12	306853	N
14:12	306954	~
14:12	307029	N
14:13	307297	N
14:13	307430	V
14:14	307750	N
14:15	307985	N
14:15	308095	|
14:16	308414	N
14:17	308584	N
14:17	308814	N
14:18	309134	N
14:19	309470	N
14:20	309837	N
14:21	309996	N
14:21	310130	N
14:21	310255	N
14:22	310487	N
14:23	310748	N
14:24	311052	N
14:24	311298	N
14:25	311532	N
14:26	311819	N
14:26	312025	N
14:27	312234	N
14:27	312376	~
14:27	312426	N
14:28	312620	N
14:29	312893	N
14:29	313030	V
14:29	313142	V
14:30	313278	N
14:30	313410	N
14:31	313613	N
14:31	313895	N
14:32	314118	N
14:32	314275	N
14:33	314407	N
14:33	314520	N
14:34	314644	N
14:34	314828	N
14:35	315084	N
14:35	315322	N
14:36	315478	N
14:36	315691	N
14:37	315902	N
14:37	316025	N
14:38	316139	N
14:38	316262	N
14:39	316479	N
14:39	316602	V
14:40	316847	N
14:40	317074	N
14:41	317219	N
14:41	317479	N
14:42	317724	N
14:42	317853	V
14:43	317961	~
14:43	318000	N
14:43	318172	N
14:44	318415	N
14:45	318607	N
14:45	318707	|
14:45	318755	N
14:45	318833	|
14:45	318891	N
14:46	318994	N
14:46	319210	N
14:47	319430	N
14:47	319652	N
14:48	319797	N
14:49	320056	N
14:49	320296	N
14:50	320418	N
14:51	320774	N
14:51	320907	V
14:52	321220	N
14:52	321421	N
14:53	321666	N
14:54	321891	N
14:54	322036	N
14:54	322167	N
14:55	322304	N
14:55	322445	N
14:56	322583	N
14:56	322872	~
14:56	322901	N
14:57	323043	V
14:57	323235	N
14:58	323415	N
14:58	323581	N
14:59	323754	N
14:59	323897	N
15:00	324013	N
15:00	324273	N
15:01	324536	N
15:01	324702	N
15:02	324836	N
15:02	324927	~
15:02	325043	N
15:03	325169	|
15:03	325282	N
15:03	325434	|
15:04	325480	|
15:04	325526	N
15:04	325672	V
15:05	325972	N
15:06	326224	N
15:06	326376	N
15:07	326572	N
15:07	326696	V
15:07	326730	|
15:08	326956	N
15:08	327173	N
15:09	327408	N
15:10	327640	N
15:10	327794	N
15:10	327940	N
15:11	328160	N
15:12	328359	N
15:12	328670	N
15:13	328914	N
15:14	329167	N
15:14	329295	|
15:14	329324	N
15:15	329459	|
15:15	329567	N
15:15	329584	|
15:15	329642	|
15:15	329692	|
15:15	329730	|
15:16	329813	~
15:16	329848	N
15:16	329982	V
15:16	330112	V
15:17	330457	N
15:18	330692	N
15:19	330970	N
15:20	331218	N
15:20	331411	N
15:21	331592	N
15:21	331772	N
15:21	331903	N
15:22	332117	N
15:22	332203	~
15:23	332341	N
15:23	332500	|
15:23	332624	N
15:24	332744	~
15:24	332764	V
15:24	332883	V
15:25	333028	N
15:25	333156	N
15:25	333230	~
15:26	333364	N
15:26	333663	N
15:27	333808	N
15:27	333928	N
15:28	334189	N
15:29	334455	N
15:29	334725	N
15:30	334878	N
15:30	335145	N
15:31	335403	N
15:32	335566	N
15:32	335738	N
15:33	335993	N
15:33	336179	N
15:34	336307	N
15:34	336540	N
15:35	336697	V
15:35	336915	N
15:36	337173	N
15:37	337464	N
15:38	337685	N
15:38	337953	N
15:39	338300	N
15:40	338520	N
15:40	338719	N
15:41	338982	N
15:42	339348	N
15:43	339590	N
15:44	339893	N
15:44	340029	V
15:44	340157	V
15:45	340295	N
15:45	340409	N
15:46	340626	N
15:46	340776	V
15:47	341067	N
15:48	341409	N
15:49	341693	N
15:49	341991	N
15:50	342281	N
15:51	342496	N
15:52	342725	N
15:52	342880	N
15:53	343116	N
15:53	343313	N
15:54	343615	N
15:55	343889	N
15:55	344105	N
15:56	344246	N
15:56	344371	N
15:56	344510	N
15:57	344737	N
15:58	344903	N
15:58	345131	N
15:59	345490	N
16:00	345780	N
16:01	345966	N
16:01	346265	N
16:02	346540	N
16:03	346883	N
16:04	347096	N
16:04	347247	N
16:04	347370	N
16:05	347500	N
16:05	347640	N
16:06	347925	N
16:06	348082	V
16:07	348307	N
16:07	348433	V
16:08	348713	N
16:09	348912	N
16:09	349130	N
16:10	349361	N
16:11	349648	N
16:11	349880	N
16:12	350187	N
16:13	350412	N
16:13	350556	N
16:14	350666	N
16:14	350910	N
16:15	351054	V
16:15	351265	N
16:16	351506	N
16:17	351868	N
16:18	352169	N
16:18	352364	N
16:19	352701	N
16:20	353013	N
16:21	353313	N
16:21	353512	N
16:22	353785	N
16:23	354094	N
16:24	354377	N
16:25	354628	N
16:25	354884	N
16:26	355198	N
16:27	355471	N
16:28	355699	N
16:28	355832	N
16:29	356138	N
16:29	356289	V
16:30	356416	V
16:30	356683	N
16:31	356952	N
16:32	357326	N
16:33	357754	N
16:34	357894	V
16:35	358360	N
16:36	358590	N
16:36	358733	N
16:36	358868	N
16:37	359200	N
16:38	359359	V
16:39	359679	N
16:39	359930	N
16:40	360316	N
16:41	360555	N
16:41	360691	N
16:42	361027	N
16:43	361319	N
16:44	361668	N
16:45	361892	N
16:45	362120	N
16:46	362379	N
16:47	362547	N
16:47	362776	N
16:48	363014	N
16:48	363142	V
16:49	363267	V
16:49	363434	N
16:49	363582	N
16:50	363726	N
16:50	363841	N
16:51	363969	N
16:51	364159	N
16:52	364349	N
16:52	364502	N
16:53	364743	N
16:53	364924	N
16:54	365202	N
16:55	365404	N
16:55	365743	N
16:56	365901	V
16:57	366237	N
16:57	366469	N
16:58	366679	N
16:59	367035	N
17:00	367318	N
17:00	367445	V
17:01	367583	N
17:01	367746	N
17:02	367989	N
17:02	368159	N
17:03	368334	N
17:03	368490	N
17:04	368832	N
17:04	368964	V
17:05	369215	N
17:06	369472	N
17:06	369706	N
17:07	369921	N
17:08	370185	N
17:08	370412	N
17:09	370543	V
17:09	370759	N
17:10	370905	N
17:10	371146	N
17:11	371329	N
17:12	371570	N
17:12	371780	N
17:13	371935	N
17:13	372069	N
17:13	372163	~
17:14	372298	N
17:14	372431	V
17:15	372793	N
17:15	372944	V
17:16	373115	N
17:16	373285	N
17:17	373648	N
17:18	373788	V
17:18	373973	N
17:19	374110	N
17:19	374246	N
17:20	374611	N
17:20	374736	V
17:22	375143	N
17:22	375316	V
17:23	375538	N
17:23	375675	~
17:23	375801	N
17:24	376042	N
17:25	376376	N
17:26	376625	N
17:27	376944	N
17:27	377214	N
17:28	377340	V
17:28	377560	N
17:29	377825	N
17:30	378061	N
17:31	378439	N
17:31	378600	V
17:32	378737	V
17:32	378974	N
17:33	379202	N
17:34	379450	N
17:34	379579	V
17:35	379826	N
17:35	380080	N
17:36	380331	N
17:36	380480	N
17:38	380909	N
17:38	381059	V
17:39	381334	N
17:39	381586	N
17:40	381808	N
17:41	381961	N
17:41	382247	N
17:42	382551	N
17:43	382871	N
17:44	383279	N
17:45	383464	N
17:45	383597	N
17:46	383827	N
17:46	383965	V
17:47	384315	N
17:47	384457	V
17:48	384749	N
17:49	385055	N
17:50	385203	V
17:50	385340	V
17:51	385563	N
17:52	385946	N
17:52	386095	V
17:53	386335	N
17:53	386600	N
17:54	386877	N
17:54	386962	+
17:55	387025	V
17:55	387164	V
17:55	387292	V
17:56	387405	+
17:56	387445	N
17:56	387694	N
17:57	387819	V
17:58	388147	N
17:58	388287	V
17:59	388584	N
18:00	388914	N
18:01	389289	N
18:02	389678	N
18:03	389936	N
18:03	390158	N
18:04	390289	V
18:04	390416	V
18:05	390790	N
18:05	390950	V
18:07	391334	N
18:07	391653	N
18:08	391996	N
18:09	392184	N
18:09	392374	N
18:10	392499	V
18:11	392762	N
18:11	393000	N
18:12	393270	N
18:12	393417	V
18:13	393730	N
18:14	393903	N
18:14	394137	N
18:15	394371	N
18:15	394510	N
18:16	394702	N
18:17	394980	N
18:17	395186	N
18:18	395446	N
18:19	395788	N
18:20	396028	N
18:20	396162	V
18:20	396276	V
18:21	396528	N
18:22	396821	N
18:22	396960	V
18:22	397075	V
18:23	397326	N
18:24	397642	N
18:25	397967	N
18:26	398309	N
18:26	398483	N
18:27	398782	N
18:28	399026	N
18:29	399317	N
18:29	399590	N
18:30	399873	N
18:31	400044	N
18:32	400335	N
18:32	400528	N
18:33	400718	N
18:33	400907	N
18:33	401039	N
18:34	401233	N
18:35	401536	N
18:36	401779	V
18:36	402058	N
18:37	402273	N
18:38	402660	N
18:39	402985	N
18:39	403178	N
18:40	403309	N
18:40	403454	N
18:41	403675	N
18:41	403808	V
18:42	403943	V
18:42	404077	N
18:43	404349	N
18:43	404601	N
18:44	404828	N
18:44	404973	N
18:45	405242	N
18:45	405315	+
18:46	405382	V
18:46	405506	V
18:46	405621	V
18:47	405731	+
18:47	405768	N
18:47	405955	N
18:48	406106	N
18:49	406473	N
18:49	406614	V
18:50	406930	N
18:51	407195	N
18:51	407305	~
18:51	407422	N
18:52	407654	N
18:53	407961	N
18:54	408267	N
18:54	408488	N
18:55	408676	N
18:55	408883	N
18:56	409016	V
18:56	409135	N
18:56	409254	N
18:57	409395	N
18:57	409510	N
18:58	409771	N
18:58	409814	~
18:58	409907	V
18:59	410066	N
18:59	410188	N
19:00	410456	N
19:00	410610	V
19:01	410955	N
19:01	411113	V
19:02	411331	N
19:03	411567	N
19:04	411859	N
19:04	412130	N
19:05	412517	N
19:06	412789	N
19:07	412934	N
19:07	413251	N
19:08	413310	+
19:08	413394	V
19:08	413504	V
19:08	413628	V
19:09	413805	+
19:09	413917	N
19:10	414057	V
19:11	414566	N
19:12	414725	V
19:12	414945	N
19:12	415016	+
19:13	415080	V
19:13	415211	V
19:13	415325	V
19:14	415460	V
19:14	415623	+
19:15	415801	N
19:15	415937	V
19:15	416142	N
19:16	416339	N
19:16	416470	N
19:17	416632	N
19:18	416889	N
19:18	417022	V
19:18	417151	V
19:19	417379	N
19:20	417684	N
19:20	417857	V
19:21	418300	N
19:22	418446	V
19:22	418472	~
19:22	418550	|
19:23	418788	N
19:23	418944	V
19:24	419212	N
19:25	419400	N
19:25	419649	N
19:26	419878	N
19:26	420005	V
19:27	420274	N
19:27	420316	~
19:27	420479	N
19:28	420702	N
19:29	421012	N
19:29	421186	N
19:30	421315	N
19:31	421627	N
19:31	421882	N
19:32	422136	N
19:33	422391	N
19:33	422520	V
19:34	422743	N
19:34	422975	N
19:35	423287	N
19:36	423434	V
19:36	423717	N
19:37	424076	N
19:38	424343	N
19:39	424582	N
19:39	424741	N
19:40	424928	N
19:41	425226	N
19:42	425599	N
19:42	425796	N
19:43	426010	N
19:43	426144	V
19:44	426263	V
19:44	426417	N
19:45	426690	N
19:45	426869	N
19:46	427177	N
19:47	427444	N
19:48	427692	N
19:48	427907	N
19:49	428127	N
19:49	428275	V
19:50	428402	N
19:50	428547	N
19:50	428679	N
19:51	428841	N
19:51	429035	N
19:52	429312	N
19:53	429602	N
19:54	429846	N
19:54	430035	N
19:55	430352	N
19:56	430625	N
19:56	430775	N
19:57	431085	N
19:58	431301	N
19:58	431447	N
19:58	431574	N
19:59	431841	N
19:59	431992	V
20:00	432328	N
20:01	432628	N
20:02	432888	N
20:02	432952	+
20:02	433022	V
20:03	433160	V
20:03	433293	V
20:03	433425	+
20:04	433516	N
20:04	433781	N
20:05	433968	N
20:06	434181	N
20:06	434350	N
20:07	434559	N
20:07	434802	N
20:08	435083	N
20:09	435278	N
20:09	435504	N
20:10	435775	N
20:11	435990	N
20:11	436255	N
20:12	436601	N
20:13	436754	V
20:13	436885	V
20:14	437107	N
20:14	437346	N
20:15	437478	V
20:15	437598	V
20:16	437760	N
20:16	437893	N
20:16	438028	N
20:17	438168	N
20:17	438433	N
20:18	438576	V
20:18	438800	N
20:19	439049	N
20:20	439235	N
20:20	439372	N
20:21	439706	N
20:21	439836	V
20:22	440088	N
20:23	440342	N
20:24	440650	N
20:24	440888	N
20:25	441105	N
20:26	441418	N
20:27	441723	N
20:27	441996	N
20:28	442191	N
20:29	442478	N
20:30	442815	N
20:30	443107	N
20:31	443412	N
20:32	443554	V
20:32	443696	N
20:33	444043	N
20:33	444186	V
20:34	444353	N
20:34	444525	N
20:35	444785	N
20:36	445201	N
20:37	445620	N
20:38	445915	N
20:39	446213	N
20:40	446479	N
20:40	446733	N
20:41	446996	N
20:42	447182	N
20:42	447326	N
20:42	447462	N
20:44	447864	N
20:44	448018	V
20:45	448369	N
20:46	448592	N
20:47	448942	N
20:47	449217	N
20:48	449368	N
20:49	449671	N
20:49	449986	N
20:50	450256	N
20:51	450519	N
20:52	450799	N
20:53	451082	N
20:53	451232	N
20:53	451361	N
20:54	451612	N
20:54	451777	N
20:55	452044	N
20:56	452373	N
20:57	452619	N
20:57	452758	N
20:58	453118	N
20:59	453267	V
20:59	453595	N
21:00	453836	N
21:01	454071	N
21:02	454479	N
21:03	454844	N
21:03	455038	N
21:04	455164	N
21:04	455388	N
21:05	455619	N
21:06	455832	N
21:06	455990	N
21:07	456275	N
21:08	456490	N
21:08	456734	N
21:09	456865	V
21:09	456976	V
21:09	457116	N
21:09	457181	~
21:10	457223	|
21:10	457353	N
21:10	457467	N
21:11	457723	N
21:12	457947	N
21:12	458181	N
21:13	458345	N
21:13	458469	N
21:13	458578	N
21:14	458706	N
21:14	458848	N
21:15	459059	N
21:15	459225	N
21:16	459431	N
21:16	459694	N
21:17	459855	N
21:17	460076	N
21:18	460245	N
21:18	460427	N
21:19	460578	N
21:20	460834	N
21:20	461088	N
21:21	461389	N
21:22	461692	N
21:22	461871	N
21:23	462020	N
21:23	462152	N
21:24	462280	N
21:24	462436	N
21:25	462659	N
21:25	462899	N
21:26	463038	N
21:26	463167	N
21:27	463354	N
21:28	463796	N
21:28	463930	V
21:29	464163	N
21:29	464368	N
21:30	464675	N
21:31	464936	N
21:32	465187	N
21:32	465454	N
21:33	465616	N
21:34	465961	N
21:34	466129	N
21:35	466450	N
21:36	466765	N
21:37	467093	N
21:37	467240	V
21:38	467433	N
21:38	467632	N
21:39	467929	N
21:40	468077	V
21:41	468399	N
21:42	468734	N
21:42	469007	N
21:43	469255	N
21:43	469434	~
21:44	469533	N
21:44	469787	N
21:45	470048	N
21:46	470213	N
21:46	470504	N
21:47	470676	N
21:47	470798	N
21:48	470943	N
21:49	471288	N
21:49	471447	V
21:50	471796	N
21:50	471937	V
21:51	472169	N
21:52	472522	N
21:53	472798	N
21:54	473158	N
21:55	473432	N
21:55	473645	N
21:56	473785	N
21:56	474002	N
21:57	474383	N
21:58	474801	N
21:59	475048	N
22:00	475356	N
22:01	475593	N
22:01	475829	N
22:02	476212	N
22:03	476456	N
22:03	476585	V
22:04	476909	N
22:05	477267	N
22:06	477560	N
22:06	477706	V
22:07	477818	V
22:08	478199	N
22:08	478340	V
22:09	478643	N
22:10	479023	N
22:11	479372	N
22:12	479670	N
22:13	479951	N
22:13	480198	N
22:14	480450	N
22:14	480587	V
22:15	480897	N
22:16	481141	N
22:17	481444	N
22:18	481695	N
22:18	481900	N
22:19	482050	N
22:19	482182	N
22:20	482412	N
22:20	482599	N
22:21	482864	N
22:22	483122	N
22:22	483319	N
22:23	483504	N
22:23	483650	N
22:24	483865	N
22:24	484157	N
22:25	484360	N
22:25	484496	N
22:26	484630	N
22:26	484859	N
22:27	484981	V
22:27	485211	N
22:28	485378	N
22:29	485662	N
22:29	485907	N
22:30	486181	N
22:30	486328	V
22:31	486666	N
22:32	486959	N
22:33	487186	N
22:33	487415	N
22:34	487703	N
22:35	487964	N
22:36	488318	N
22:36	488473	V
22:37	488842	N
22:38	489018	N
22:39	489294	N
22:39	489475	N
22:40	489689	N
22:40	489864	N
22:41	490088	N
22:41	490299	N
22:42	490446	N
22:43	490730	N
22:43	490904	N
22:44	491131	N
22:44	491395	N
22:45	491665	N
22:46	491990	N
22:47	492245	N
22:48	492531	N
22:48	492746	N
22:49	493015	N
22:50	493256	N
22:50	493527	N
22:51	493681	N
22:52	493920	N
22:53	494324	N
22:53	494623	N
22:54	494854	N
22:55	495166	N
22:56	495386	N
22:56	495682	N
22:57	495914	N
22:58	496203	N
22:59	496475	N
22:59	496729	N
23:00	497065	N
23:01	497269	N
23:01	497451	N
23:02	497725	N
23:03	497968	N
23:03	498164	N
23:04	498410	N
23:05	498616	N
23:05	498866	N
23:06	499134	N
23:07	499369	N
23:08	499686	N
23:08	499856	N
23:09	500096	N
23:09	500302	N
23:10	500469	N
23:10	500718	N
23:11	501032	N
23:12	501332	N
23:12	501478	V
23:13	501570	V
23:13	501825	N
23:14	502052	N
23:15	502251	N
23:15	502522	N
23:16	502830	N
23:17	503057	N
23:17	503264	N
23:18	503473	N
23:19	503775	N
23:20	504014	N
23:20	504319	N
23:21	504535	N
23:21	504711	N
23:22	504954	N
23:23	505168	N
23:23	505382	N
23:23	505420	~
23:24	505531	N
23:24	505675	N
23:25	505842	N
23:25	506060	N
23:26	506317	N
23:27	506531	N
23:27	506674	N
23:27	506813	N
23:28	506961	~
23:28	507084	N
23:28	507238	N
23:29	507352	N
23:29	507468	N
23:30	507704	N
23:30	507863	N
23:31	508080	N
23:32	508337	N
23:32	508613	N
23:33	508756	N
23:33	508994	N
23:33	509025	~
23:34	509142	N
23:34	509247	N
23:34	509363	N
23:35	509699	N
23:36	509832	V
23:36	510099	N
23:37	510244	V
23:38	510499	N
23:38	510711	N
23:39	510846	N
23:39	511110	N
23:40	511262	V
23:40	511402	N
23:41	511655	N
23:41	511818	N
23:42	511994	N
23:42	512217	N
23:43	512350	V
23:43	512482	V
23:44	512751	N
23:44	512983	N
23:45	513271	N
23:46	513407	V
23:46	513664	N
23:47	513814	N
23:47	513944	N
23:48	514139	N
23:48	514406	N
23:49	514658	N
23:50	514827	N
23:50	514899	~
23:50	515080	N
23:51	515293	N
23:52	515591	N
23:53	515910	N
23:53	516051	V
23:53	516182	V
23:54	516442	N
23:55	516732	N
23:56	517062	N
23:56	517218	N
23:57	517494	N
23:57	517640	V
23:58	517884	N
23:59	518079	N
23:59	518301	N
24:00	518437	V
24:00	518563	V
24:01	518833	N
24:01	518987	N
24:02	519181	N
24:02	519400	N
24:03	519617	N
24:04	519865	N
24:04	520031	N
24:04	520189	N
24:05	520321	N
24:05	520557	N
24:06	520851	N
24:07	521111	N
24:08	521295	N
24:08	521517	N
24:09	521765	N
24:09	521894	V
24:10	522217	N
24:10	522359	V
24:11	522491	V
24:12	522755	N
24:12	522916	N
24:13	523246	N
24:14	523508	N
24:14	523763	N
24:15	524057	N
24:16	524374	N
24:17	524626	N
24:17	524776	N
24:18	525085	N
24:19	525251	V
24:19	525351	V
24:20	525602	N
24:20	525907	N
24:21	526101	N
24:21	526302	N
24:22	526446	N
24:22	526559	N
24:23	526813	N
24:24	527093	N
24:25	527425	N
24:26	527826	N
24:26	528075	N
24:28	528484	N
24:28	528834	N
24:29	529015	N
24:30	529283	N
24:31	529610	N
24:31	529845	N
24:32	529985	N
24:32	530197	N
24:33	530492	N
24:34	530733	N
24:34	530881	N
24:35	531024	N
24:35	531155	N
24:36	531389	N
24:36	531619	N
24:37	531988	N
24:38	532196	N
24:38	532421	N
24:39	532601	~
24:39	532667	N
24:40	532862	N
24:41	533183	N
24:41	533479	N
24:43	533903	N
24:43	534211	N
24:44	534352	V
24:45	534658	N
24:46	534982	N
24:46	535181	N
24:47	535354	N
24:47	535459	|
24:47	535593	N
24:48	535833	N
24:48	535886	|
24:49	536100	Q
24:49	536392	Q
24:50	536660	Q
24:51	536969	N
24:52	537205	N
24:52	537359	N
24:53	537657	N
24:53	537813	V
24:54	537998	N
24:54	538116	~
24:55	538227	N
24:56	538562	N
24:56	538793	N
24:56	538860	+
24:57	538925	V
24:57	539022	V
24:57	539143	V
24:57	539209	|
24:58	539292	+
24:58	539370	N
24:58	539537	N
24:58	539636	~
24:59	539831	N
25:00	540006	V
25:00	540205	~
25:01	540396	N
25:01	540551	V
25:01	540677	V
25:02	540922	N
25:03	541098	N
25:03	541252	N
25:04	541469	N
25:04	541745	N
25:05	542032	N
25:06	542330	N
25:07	542621	N
25:07	542786	N
25:08	543032	N
25:09	543270	N
25:09	543571	N
25:10	543805	N
25:11	544031	N
25:11	544308	N
25:12	544537	N
25:13	544689	N
25:13	544943	N
25:14	545204	N
25:15	545500	N
25:15	545753	N
25:16	545904	N
25:16	546044	N
25:17	546160	V
25:17	546377	N
25:18	546538	N
25:18	546829	N
25:19	547006	N
25:19	547163	N
25:20	547402	N
25:20	547557	N
25:22	547932	N
25:22	548083	V
25:23	548526	N
25:24	548948	N
25:25	549129	V
25:25	549357	N
25:26	549579	N
25:26	549705	V
25:27	549818	V
25:27	550002	N
25:28	550259	N
25:29	550495	N
25:29	550726	N
25:30	550987	N
25:31	551273	N
25:31	551436	N
25:32	551751	N
25:33	551974	N
25:33	552228	N
25:34	552477	N
25:35	552616	V
25:35	552803	N
25:36	552971	N
25:36	553242	N
25:37	553502	N
25:38	553719	N
25:38	553841	V
25:39	554056	N
25:39	554197	N
25:40	554425	N
25:40	554658	N
25:41	554863	N
25:41	555119	N
25:42	555352	N
25:43	555650	N
25:44	555934	N
25:45	556212	N
25:45	556405	N
25:46	556642	N
25:46	556836	N
25:47	557080	N
25:48	557318	N
25:48	557526	N
25:49	557764	N
25:49	557991	N
25:50	558244	N
25:51	558380	V
25:51	558488	V
25:51	558624	N
25:52	558839	N
25:52	558979	V
25:54	559456	N
25:54	559606	V
25:55	559964	N
25:56	560201	N
25:56	560434	N
25:57	560692	N
25:57	560827	V
25:58	561097	N
25:59	561306	N
25:59	561483	N
26:00	561825	N
26:01	562140	N
26:02	562352	N
26:02	562497	N
26:03	562751	N
26:03	562929	N
26:04	563076	N
26:04	563368	N
26:05	563561	N
26:06	563850	N
26:06	563996	V
26:07	564248	N
26:07	564458	N
26:08	564818	N
26:09	564996	N
26:09	565162	N
26:10	565372	N
26:11	565575	N
26:11	565825	N
26:12	566115	N
26:13	566424	N
26:13	566584	N
26:14	566864	N
26:15	567038	N
26:16	567403	N
26:16	567605	N
26:17	567740	N
26:17	567864	N
26:18	568106	N
26:18	568385	N
26:19	568536	V
26:20	568919	N
26:20	569070	V
26:21	569383	N
26:22	569817	N
26:23	570134	N
26:24	570400	N
26:24	570543	V
26:25	570764	N
26:26	571070	N
26:26	571210	V
26:27	571404	N
26:28	571705	N
26:29	572068	N
26:29	572273	N
26:30	572471	N
26:30	572705	N
26:31	572985	N
26:32	573223	N
26:32	573357	V
26:33	573480	V
26:33	573782	N
26:34	574021	N
26:35	574243	N
26:35	574387	N
26:36	574639	N
26:36	574906	N
26:38	575300	N
26:38	575463	N
26:38	575618	N
26:39	575853	N
26:40	576094	N
26:41	576394	N
26:41	576552	V
26:42	576791	N
26:42	576999	N
26:43	577294	N
26:43	577433	V
26:44	577647	N
26:45	577873	N
26:45	577952	+
26:45	578000	V
26:45	578105	V
26:46	578228	V
26:46	578347	V
26:46	578472	V
26:47	578595	V
26:47	578717	V
26:47	578810	+
26:47	578857	N
26:48	578977	N
26:48	579134	N
26:49	579265	N
26:49	579384	N
26:49	579533	N
26:50	579671	N
26:50	579904	N
26:51	580212	N
26:52	580358	V
26:52	580488	N
26:53	580875	N
26:54	581107	N
26:54	581251	N
26:55	581504	N
26:55	581655	V
26:56	581770	V
26:56	581961	N
26:57	582221	N
26:57	582448	N
26:58	582758	N
26:59	582948	V
26:59	583154	N
27:00	583302	N
27:00	583529	N
27:01	583816	N
27:02	584122	N
27:03	584424	N
27:03	584636	N
27:04	584869	N
27:05	585019	N
27:06	585362	N
27:06	585536	N
27:07	585845	N
27:07	586004	V
27:08	586292	N
27:09	586516	N
27:10	586906	N
27:10	587132	N
27:11	587381	N
27:12	587677	N
27:13	587884	N
27:13	588034	N
27:14	588299	N
27:14	588554	N
27:15	588768	N
27:16	589101	N
27:17	589340	N
27:17	589665	N
27:18	589753	+
27:18	589815	V
27:18	589942	V
27:19	590081	V
27:19	590265	+
27:19	590307	N
27:20	590624	N
27:21	590792	V
27:21	591055	N
27:22	591314	N
27:23	591591	N
27:24	591865	N
27:24	592152	N
27:25	592447	N
27:26	592651	N
27:26	592866	N
27:27	593156	N
27:28	593370	N
27:28	593511	N
27:29	593768	N
27:30	594049	N
27:30	594293	N
27:31	594607	N
27:32	594888	N
27:33	595136	N
27:33	595386	N
27:34	595641	N
27:35	595878	N
27:36	596163	N
27:36	596506	N
27:37	596656	V
27:37	596790	V
27:38	597017	N
27:38	597160	N
27:39	597380	N
27:40	597641	N
27:40	597811	N
27:41	598085	N
27:41	598263	N
27:42	598490	N
27:43	598780	N
27:43	599024	N
27:44	599261	N
27:45	599400	V
27:45	599517	V
27:45	599753	N
27:46	599888	V
27:47	600205	N
27:48	600499	N
27:48	600660	N
27:49	600910	N
27:49	601192	N
27:50	601377	N
27:51	601609	N
27:51	601737	V
27:52	601948	N
27:52	602161	N
27:53	602429	N
27:54	602740	N
27:54	602899	N
27:55	603020	N
27:55	603150	N
27:55	603277	N
27:56	603528	N
27:56	603671	V
27:57	603776	V
27:57	604025	N
27:58	604154	N
27:58	604418	N
27:59	604684	N
28:00	605020	N
28:01	605338	N
28:02	605673	N
28:02	605859	N
28:03	606008	N
28:03	606210	N
28:04	606446	N
28:05	606640	N
28:05	606773	N
28:06	606971	N
28:06	607141	N
28:07	607460	N
28:08	607741	N
28:08	607878	V
28:09	608067	N
28:09	608260	N
28:10	608506	N
28:11	608780	N
28:11	609047	N
28:12	609272	N
28:13	609534	N
28:14	609858	N
28:14	610184	N
28:15	610519	N
28:16	610599	+
28:16	610665	V
28:16	610762	V
28:16	610885	V
28:17	611015	V
28:17	611153	+
28:17	611222	N
28:18	611466	N
28:19	611758	N
28:20	612011	N
28:20	612145	V
28:21	612366	N
28:21	612646	N
28:22	612801	N
28:23	613084	N
28:23	613395	N
28:24	613675	N
28:25	614034	N
28:26	614444	N
28:27	614720	N
28:28	614949	N
28:28	615202	N
28:29	615478	N
28:30	615780	N
28:30	615950	N
28:31	616219	N
28:32	616449	N
28:33	616838	N
28:34	617059	N
28:34	617349	N
28:35	617584	N
28:36	617862	N
28:37	618197	N
28:38	618518	N
28:38	618747	N
28:39	618990	N
28:39	619122	V
28:40	619257	V
28:40	619498	N
28:41	619655	N
28:41	619798	N
28:42	620022	N
28:42	620161	V
28:43	620293	V
28:43	620517	N
28:44	620924	N
28:45	621202	N
28:47	621726	N
28:47	621979	N
28:48	622258	N
28:48	622401	V
28:49	622587	N
28:49	622709	F
28:50	622950	N
28:51	623177	N
28:51	623391	N
28:52	623597	N
28:52	623816	N
28:53	623950	V
28:53	624067	V
28:53	624205	N
28:54	624340	N
28:54	624596	N
28:55	624745	V
28:56	625012	N
28:56	625312	N
28:57	625532	N
28:58	625846	N
28:59	626100	N
28:59	626247	N
29:00	626596	N
29:01	626930	N
29:01	627081	V
29:02	627421	N
29:03	627763	N
29:04	627958	N
29:05	628203	N
29:05	628362	N
29:06	628629	N
29:07	628952	N
29:07	629261	N
29:08	629473	N
29:09	629730	N
29:09	629882	N
29:10	630027	N
29:10	630165	N
29:10	630288	N
29:11	630518	N
29:12	630802	N
29:12	631072	N
29:13	631302	N
29:14	631533	N
29:14	631763	N
29:15	631996	N
29:16	632270	N
29:16	632495	N
29:17	632641	N
29:17	632754	N
29:18	632970	N
29:19	633252	N
29:19	633503	N
29:20	633649	N
29:20	633805	N
29:21	634085	N
29:21	634268	N
29:22	634517	N
29:23	634831	N
29:23	635037	N
29:24	635321	N
29:25	635472	V
29:26	635773	N
29:26	635974	N
29:26	636115	N
29:27	636230	N
29:27	636453	N
29:28	636721	N
29:29	637096	N
29:30	637475	N
29:31	637744	N
29:32	637980	N
29:32	638114	V
29:33	638341	N
29:33	638590	N
29:34	638853	N
29:35	639139	N
29:36	639409	N
29:36	639558	N
29:37	639860	N
29:37	640051	N
29:38	640201	N
29:39	640533	N
29:39	640770	N
29:40	640927	N
29:40	641045	N
29:41	641303	N
29:41	641504	N
29:42	641707	N
29:43	641974	N
29:43	642222	N
29:44	642430	N
29:45	642729	N
29:46	643052	N
29:47	643366	N
29:47	643615	N
29:48	643851	N
29:48	644002	N
29:49	644143	N
29:49	644269	N
29:50	644532	N
29:50	644679	V
29:51	644894	N
29:51	645050	N
29:52	645243	N
29:52	645415	N
29:53	645639	N
29:54	645916	N
29:54	646068	N
29:55	646223	N
29:55	646477	N
29:56	646631	N
29:56	646879	N
29:57	647140	N
29:58	647439	N
29:59	647682	N
30:00	648057	N
30:00	648300	N
30:01	648671	N
30:02	649017	N
30:03	649237	N
30:04	649448	N
30:04	649777	N
