0:00	229	N
0:01	466	N
0:01	706	N
0:02	944	N
0:03	1188	N
0:03	1430	N
0:04	1671	N
0:05	1902	N
0:05	2145	N
0:06	2393	N
0:07	2636	N
0:07	2873	N
0:08	3113	N
0:09	3354	N
0:09	3594	N
0:10	3840	N
0:11	4084	N
0:12	4324	N
0:12	4561	N
0:13	4806	N
0:14	5059	N
0:14	5302	N
0:15	5543	N
0:16	5783	N
0:16	6024	N
0:17	6266	N
0:18	6513	N
0:18	6753	N
0:19	6991	N
0:20	7228	N
0:20	7471	N
0:21	7709	N
0:22	7948	N
0:22	8181	N
0:23	8420	N
0:24	8654	N
0:24	8899	N
0:25	9140	N
0:26	9375	N
0:26	9611	N
0:27	9851	N
0:28	10097	N
0:28	10338	N
0:29	10575	N
0:30	10810	N
0:30	11044	N
0:31	11279	N
0:32	11520	N
0:32	11767	N
0:33	12000	N
0:33	12237	N
0:34	12475	N
0:35	12722	N
0:36	12961	N
0:36	13203	N
0:37	13442	N
0:38	13686	N
0:38	13925	N
0:39	14170	N
0:40	14420	N
0:40	14663	N
0:41	14902	N
0:42	15146	N
0:42	15394	N
0:43	15640	N
0:44	15877	N
0:44	16118	N
0:45	16357	N
0:46	16598	N
0:46	16843	N
0:47	17088	N
0:48	17326	N
0:48	17562	N
0:49	17804	N
0:50	18050	N
0:50	18293	N
0:51	18531	N
0:52	18770	N
0:52	19009	N
0:53	19251	N
0:54	19500	N
0:54	19738	N
0:55	19981	N
0:56	20218	N
0:56	20464	N
0:57	20709	N
0:58	20953	N
0:58	21192	N
0:59	21435	N
1:00	21675	N
1:00	21927	N
1:01	22176	N
1:02	22420	N
1:02	22659	N
1:03	22902	N
1:04	23150	N
1:04	23393	N
1:05	23631	N
1:06	23871	N
1:06	24110	N
1:07	24346	N
1:08	24589	N
1:08	24835	N
1:09	25070	N
1:10	25306	N
1:10	25546	N
1:11	25791	N
1:12	26028	N
1:12	26267	N
1:13	26504	N
1:14	26745	N
1:14	26984	N
1:15	27226	N
1:16	27467	N
1:16	27705	N
1:17	27945	N
1:18	28190	N
1:18	28439	N
1:19	28679	N
1:20	28913	N
1:20	29150	N
1:21	29392	N
1:22	29634	N
1:22	29875	N
1:23	30115	N
1:24	30353	N
1:24	30595	N
1:25	30840	N
1:26	31087	N
1:27	31331	N
1:27	31567	N
1:28	31804	N
1:29	32042	N
1:29	32285	N
1:30	32529	N
1:31	32769	N
1:31	33009	N
1:32	33242	N
1:33	33483	N
1:33	33725	N
1:34	33964	N
1:34	34198	N
1:35	34433	N
1:36	34669	N
1:36	34911	N
1:37	35155	N
1:38	35395	N
1:38	35634	N
1:39	35870	N
1:40	36112	N
1:40	36354	N
1:41	36594	N
1:42	36828	N
1:42	37063	N
1:43	37300	N
1:44	37540	N
1:44	37782	N
1:45	38016	N
1:46	38255	N
1:46	38487	N
1:47	38729	N
1:48	38966	N
1:48	39205	N
1:49	39438	N
1:50	39671	N
1:50	39907	N
1:51	40149	N
1:52	40388	N
1:52	40625	N
1:53	40861	N
1:54	41096	N
1:54	41334	N
1:55	41572	N
1:56	41812	N
1:56	42042	N
1:57	42272	N
1:58	42507	N
1:58	42744	N
1:59	42983	N
2:00	43217	N
2:00	43454	N
2:01	43687	N
2:02	43928	N
2:02	44170	N
2:03	44412	N
2:04	44647	N
2:04	44888	N
2:05	45127	N
2:06	45373	N
2:06	45619	N
2:07	45858	N
2:08	46099	N
2:08	46340	N
2:09	46586	N
2:10	46827	N
2:10	47067	N
2:11	47306	N
2:12	47544	N
2:12	47783	N
2:13	48023	N
2:14	48268	N
2:14	48505	N
2:15	48746	N
2:16	48989	N
2:16	49239	N
2:17	49476	N
2:18	49715	N
2:18	49952	N
2:19	50197	N
2:20	50435	N
2:20	50680	N
2:21	50918	N
2:22	51159	N
2:22	51393	N
2:23	51635	N
2:24	51879	N
2:24	52119	N
2:25	52353	N
2:26	52590	N
2:26	52830	N
2:27	53075	N
2:28	53322	N
2:28	53566	N
2:29	53807	N
2:30	54042	N
2:30	54282	N
2:31	54530	N
2:32	54770	N
2:32	55004	N
2:33	55237	N
2:34	55476	N
2:34	55715	N
2:35	55957	N
2:36	56196	N
2:36	56437	N
2:37	56674	N
2:38	56919	N
2:38	57163	N
2:39	57406	N
2:40	57645	N
2:40	57887	N
2:41	58125	N
2:42	58369	N
2:42	58611	N
2:43	58848	N
2:44	59085	N
2:44	59323	N
2:45	59563	N
2:46	59802	N
2:46	60037	N
2:47	60271	N
2:48	60507	N
2:48	60743	N
2:49	60985	N
2:50	61227	N
2:50	61462	N
2:51	61700	N
2:52	61937	N
2:52	62187	N
2:53	62427	N
2:54	62667	N
2:54	62900	N
2:55	63136	N
2:56	63371	N
2:56	63613	N
2:57	63855	N
2:58	64088	N
2:58	64322	N
2:59	64562	N
3:00	64809	N
3:00	65049	N
3:01	65288	N
3:02	65527	N
3:02	65766	N
3:03	66006	N
3:04	66247	N
3:04	66492	N
3:05	66727	N
3:06	66963	N
3:06	67198	N
3:07	67443	N
3:07	67679	N
3:08	67913	N
3:09	68144	N
3:09	68379	N
3:10	68610	N
3:11	68849	N
3:11	69091	N
3:12	69327	N
3:13	69560	N
3:13	69795	N
3:14	70041	N
3:15	70281	N
3:15	70519	N
3:16	70756	N
3:17	70991	N
3:17	71224	N
3:18	71463	N
3:19	71708	N
3:19	71942	N
3:20	72174	N
3:21	72407	N
3:21	72648	N
3:22	72884	N
3:23	73122	N
3:23	73356	N
3:24	73593	N
3:25	73829	N
3:25	74068	N
3:26	74311	N
3:27	74546	N
3:27	74783	N
3:28	75022	N
3:29	75270	N
3:29	75508	N
3:30	75745	N
3:31	75982	N
3:31	76223	N
3:32	76465	N
3:33	76709	N
3:33	76956	N
3:34	77198	N
3:35	77435	N
3:35	77678	N
3:36	77930	N
3:37	78172	N
3:37	78412	N
3:38	78652	N
3:39	78895	N
3:39	79136	N
3:40	79379	N
3:41	79624	N
3:41	79867	N
3:42	80104	N
3:43	80348	N
3:43	80596	N
3:44	80840	N
3:45	81077	N
3:45	81320	N
3:46	81565	N
3:47	81812	N
3:47	82061	N
3:48	82301	N
3:49	82542	N
3:49	82783	N
3:50	83037	N
3:51	83281	N
3:52	83525	N
3:52	83763	N
3:53	84000	N
3:53	84237	N
3:54	84478	N
3:55	84726	N
3:56	84965	N
3:56	85202	N
3:57	85445	N
3:58	85693	N
3:58	85934	N
3:59	86173	N
4:00	86413	N
4:00	86657	N
4:01	86895	N
4:02	87138	N
4:02	87381	N
4:03	87626	N
4:04	87860	N
4:04	88101	N
4:05	88345	N
4:06	88585	N
4:06	88817	N
4:07	88985	V
4:08	89292	N
4:08	89532	N
4:09	89771	N
4:10	90010	N
4:10	90246	N
4:11	90477	N
4:11	90717	N
4:12	90960	N
4:13	91196	N
4:13	91425	N
4:14	91657	N
4:15	91898	N
4:15	92139	N
4:16	92379	N
4:17	92616	N
4:17	92851	N
4:18	93087	N
4:19	93331	N
4:19	93575	N
4:20	93810	N
4:21	94041	N
4:21	94274	N
4:22	94510	N
4:23	94746	N
4:23	94984	N
4:24	95215	N
4:25	95451	N
4:25	95682	N
4:26	95926	N
4:27	96166	N
4:27	96404	N
4:28	96636	N
4:29	96869	N
4:29	97104	N
4:30	97340	N
4:31	97578	N
4:31	97812	N
4:32	98043	N
4:32	98269	N
4:33	98502	N
4:34	98741	N
4:34	98971	N
4:35	99198	N
4:36	99425	N
4:36	99659	N
4:37	99884	N
4:38	100118	N
4:38	100349	N
4:39	100578	N
4:40	100802	N
4:40	101031	N
4:41	101266	N
4:41	101493	N
4:42	101718	N
4:43	101941	N
4:43	102163	N
4:44	102383	N
4:45	102607	N
4:45	102830	N
4:46	103050	N
4:46	103269	N
4:47	103486	N
4:48	103710	N
4:48	103938	N
4:49	104156	N
4:49	104373	N
4:50	104596	N
4:51	104823	N
4:51	105044	N
4:52	105272	N
4:53	105504	N
4:53	105729	N
4:54	105956	N
4:54	106181	N
4:55	106415	N
4:56	106645	N
4:56	106875	N
4:57	107010	V
4:58	107323	N
4:58	107505	A
4:58	107561	+
4:58	107630	V
4:59	107745	V
4:59	107852	V
4:59	107977	V
5:00	108104	V
5:00	108224	V
5:00	108337	V
5:01	108464	V
5:01	108650	+
5:01	108678	N
5:02	108911	N
5:03	109089	+
5:03	109152	F
5:03	109259	V
5:03	109382	V
5:04	109490	V
5:04	109599	V
5:04	109706	V
5:05	109801	V
5:05	109906	V
5:05	110018	V
5:05	110124	V
5:06	110272	+
5:06	110298	N
5:06	110518	N
5:07	110751	N
5:08	110973	N
5:08	111198	N
5:09	111424	N
5:10	111660	N
5:10	111889	N
5:11	112120	N
5:12	112347	N
5:12	112580	N
5:13	112809	N
5:14	113046	N
5:14	113284	N
5:15	113517	N
5:15	113748	N
5:16	113869	V
5:17	114214	N
5:17	114451	N
5:18	114682	N
5:19	114908	N
5:19	115138	N
5:20	115368	N
5:21	115601	N
5:21	115834	N
5:22	116065	N
5:23	116294	N
5:23	116518	N
5:24	116751	N
5:24	116990	N
5:25	117222	N
5:26	117450	N
5:26	117682	N
5:27	117920	N
5:28	118153	N
5:28	118390	N
5:29	118625	N
5:30	118859	N
5:30	119087	N
5:31	119325	N
5:32	119563	N
5:32	119795	N
5:33	120022	N
5:34	120253	N
5:34	120488	N
5:35	120721	N
5:35	120957	N
5:36	121195	N
5:37	121429	N
5:37	121660	N
5:38	121902	N
5:39	122149	N
5:39	122385	N
5:40	122617	N
5:41	122853	N
5:41	123092	N
5:42	123329	N
5:43	123567	N
5:43	123804	N
5:44	124041	N
5:45	124273	N
5:45	124510	N
5:46	124753	N
5:47	124990	N
5:47	125225	N
5:48	125462	N
5:49	125701	N
5:49	125942	N
5:50	126187	N
5:51	126433	N
5:51	126675	N
5:52	126912	N
5:53	127157	N
5:53	127405	N
5:54	127648	N
5:55	127889	N
5:55	128129	N
5:56	128369	N
5:57	128615	N
5:57	128865	N
5:58	129106	N
5:59	129347	N
5:59	129594	N
6:00	129847	N
6:01	130091	N
6:02	130332	N
6:02	130572	N
6:03	130747	V
6:04	131057	N
6:04	131299	N
6:05	131540	N
6:06	131775	N
6:06	132006	N
6:07	132241	N
6:08	132482	N
6:08	132715	N
6:09	132949	N
6:09	133182	N
6:10	133419	N
6:11	133653	N
6:11	133896	N
6:12	134141	N
6:13	134376	N
6:13	134610	N
6:14	134851	N
6:15	135100	N
6:15	135338	N
6:16	135572	N
6:17	135805	N
6:17	136043	N
6:18	136276	N
6:19	136514	N
6:19	136752	N
6:20	136983	N
6:21	137213	N
6:21	137448	N
6:22	137690	N
6:23	137922	N
6:23	138155	N
6:24	138387	N
6:25	138622	N
6:25	138851	N
6:26	139090	N
6:27	139329	N
6:27	139564	N
6:28	139794	N
6:28	140028	N
6:29	140270	N
6:30	140503	N
6:30	140737	N
6:31	140971	N
6:32	141204	N
6:32	141435	N
6:33	141673	N
6:34	141916	N
6:34	142147	N
6:35	142381	N
6:36	142614	N
6:36	142858	N
6:37	143091	N
6:38	143329	N
6:38	143562	N
6:39	143797	N
6:40	144029	N
6:40	144270	N
6:41	144513	N
6:42	144744	N
6:42	144978	N
6:43	145213	N
6:44	145456	N
6:44	145692	N
6:45	145925	N
6:45	146156	N
6:46	146389	N
6:47	146622	N
6:47	146861	N
6:48	147100	N
6:49	147331	N
6:49	147564	N
6:50	147798	N
6:51	148041	N
6:51	148275	N
6:52	148508	N
6:53	148739	N
6:53	148971	N
6:54	149204	N
6:55	149439	N
6:55	149677	N
6:56	149907	N
6:57	150139	N
6:57	150369	N
6:58	150607	N
6:59	150840	N
6:59	151075	N
7:00	151302	N
7:00	151535	N
7:01	151765	N
7:02	152001	N
7:02	152236	N
7:03	152469	N
7:04	152702	N
7:04	152931	N
7:05	153165	N
7:06	153403	N
7:06	153636	N
7:07	153864	N
7:08	154094	N
7:08	154325	N
7:09	154556	N
7:09	154790	N
7:10	155022	N
7:11	155254	N
7:11	155481	N
7:12	155716	N
7:13	155954	N
7:13	156186	N
7:14	156415	N
7:15	156647	N
7:15	156884	N
7:16	157118	N
7:17	157354	N
7:17	157588	N
7:18	157821	N
7:19	158048	N
7:19	158285	N
7:20	158522	N
7:20	158754	N
7:21	158979	N
7:22	159209	N
7:22	159441	N
7:23	159671	N
7:24	159903	N
7:24	160138	N
7:25	160364	N
7:26	160591	N
7:26	160823	N
7:27	161063	N
7:28	161291	N
7:28	161522	N
7:29	161752	N
7:29	161983	N
7:30	162212	N
7:31	162447	N
7:31	162686	N
7:32	162911	N
7:33	163140	N
7:33	163369	N
7:34	163606	N
7:35	163836	N
7:35	164069	N
7:36	164295	N
7:37	164523	N
7:37	164750	N
7:38	164984	N
7:38	165220	N
7:39	165451	N
7:40	165682	N
7:40	165913	N
7:41	166150	N
7:42	166385	N
7:42	166620	N
7:43	166849	N
7:44	167080	N
7:44	167311	N
7:45	167545	N
7:46	167781	N
7:46	168011	N
7:47	168243	N
7:47	168469	N
7:48	168704	N
7:49	168940	N
7:49	169173	N
7:50	169402	N
7:51	169633	N
7:51	169868	N
7:52	170101	N
7:53	170338	N
7:53	170571	N
7:54	170803	N
7:55	171031	N
7:55	171266	N
7:56	171504	N
7:57	171737	N
7:57	171962	N
7:58	172191	N
7:58	172422	N
7:59	172652	N
8:00	172886	N
8:00	173121	N
8:01	173349	N
8:02	173579	N
8:02	173814	N
8:03	174057	N
8:04	174289	N
8:04	174523	N
8:05	174754	N
8:06	174987	N
8:06	175220	N
8:07	175455	N
8:08	175693	N
8:08	175921	N
8:09	176151	N
8:09	176383	N
8:10	176620	N
8:11	176851	N
8:11	177085	N
8:12	177315	N
8:13	177547	N
8:13	177776	N
8:14	178013	N
8:15	178252	N
8:15	178485	N
8:16	178718	N
8:17	178948	N
8:17	179185	N
8:18	179420	N
8:19	179653	N
8:19	179881	N
8:20	180106	N
8:20	180334	N
8:21	180565	N
8:22	180798	N
8:22	181026	N
8:23	181258	N
8:24	181482	N
8:24	181716	N
8:25	181953	N
8:26	182183	N
8:26	182409	N
8:27	182638	N
8:27	182871	N
8:28	183102	N
8:29	183334	N
8:29	183567	N
8:30	183797	N
8:31	184022	N
8:31	184256	N
8:32	184494	N
8:33	184721	N
8:33	184948	N
8:34	185180	N
8:35	185412	N
8:35	185645	N
8:36	185880	N
8:37	186120	N
8:37	186350	N
8:38	186581	N
8:38	186814	N
8:39	187054	N
8:40	187286	N
8:40	187520	N
8:41	187747	N
8:42	187976	N
8:42	188203	N
8:43	188437	N
8:44	188668	N
8:44	188891	N
8:45	189116	N
8:45	189337	N
8:46	189567	N
8:47	189796	N
8:47	190025	N
8:48	190243	N
8:49	190465	N
8:49	190691	N
8:50	190917	N
8:50	191145	N
8:51	191374	N
8:52	191596	N
8:52	191816	N
8:53	192042	N
8:54	192274	N
8:54	192497	N
8:55	192722	N
8:55	192946	N
8:56	193169	N
8:57	193395	N
8:57	193626	N
8:58	193861	N
8:59	194087	N
8:59	194317	N
9:00	194548	N
9:01	194787	N
9:01	195020	N
9:02	195254	N
9:03	195484	N
9:03	195716	N
9:04	195946	N
9:04	196182	N
9:05	196416	N
9:06	196645	N
9:06	196876	N
9:07	197106	N
9:08	197343	N
9:08	197578	N
9:09	197812	N
9:10	198041	N
9:10	198272	N
9:11	198508	N
9:12	198748	N
9:12	198988	N
9:13	199221	N
9:14	199458	N
9:14	199694	N
9:15	199935	N
9:16	200174	N
9:16	200415	N
9:17	200647	N
9:18	200880	N
9:18	201047	V
9:19	201350	N
9:19	201591	N
9:20	201820	N
9:21	202053	N
9:21	202282	N
9:22	202518	N
9:23	202753	N
9:23	202992	N
9:24	203222	N
9:25	203454	N
9:25	203687	N
9:26	203928	N
9:27	204169	N
9:27	204406	N
9:28	204640	N
9:29	204873	N
9:29	205112	N
9:30	205352	N
9:31	205588	N
9:31	205820	N
9:32	206050	N
9:33	206284	N
9:33	206519	N
9:34	206756	N
9:34	206987	N
9:35	207219	N
9:36	207450	N
9:36	207687	N
9:37	207925	N
9:38	208163	N
9:38	208392	N
9:39	208624	N
9:40	208861	N
9:40	209099	N
9:41	209340	N
9:42	209574	N
9:42	209810	N
9:43	210044	N
9:44	210286	N
9:44	210529	N
9:45	210766	N
9:46	210995	N
9:46	211227	N
9:47	211463	N
9:48	211703	N
9:48	211942	N
9:49	212174	N
9:50	212410	N
9:50	212643	N
9:51	212884	N
9:52	213126	N
9:52	213364	N
9:53	213593	N
9:53	213826	N
9:54	214064	N
9:55	214302	N
9:55	214541	N
9:56	214772	N
9:57	215008	N
9:57	215237	N
9:58	215475	N
9:59	215714	N
9:59	215950	N
10:00	216177	N
10:01	216409	N
10:01	216643	N
10:02	216878	N
10:03	217114	N
10:03	217350	N
10:04	217585	N
10:05	217816	N
10:05	218050	N
10:06	218293	N
10:07	218525	N
10:07	218756	N
10:08	218986	N
10:08	219222	N
10:09	219453	N
10:10	219689	N
10:10	219925	N
10:11	220163	N
10:12	220394	N
10:12	220630	N
10:13	220870	N
10:14	221104	N
10:14	221338	N
10:15	221575	N
10:16	221817	N
10:16	222051	N
10:17	222289	N
10:18	222528	N
10:18	222766	N
10:19	222999	N
10:20	223236	N
10:20	223478	N
10:21	223712	N
10:22	223942	N
10:22	224174	N
10:23	224411	N
10:24	224642	N
10:24	224877	N
10:25	225113	N
10:25	225346	N
10:26	225577	N
10:27	225810	N
10:27	226054	N
10:28	226287	N
10:29	226518	N
10:29	226744	N
10:30	226978	N
10:31	227205	N
10:31	227440	N
10:32	227672	N
10:33	227900	N
10:33	228125	N
10:34	228356	N
10:34	228592	N
10:35	228824	N
10:36	229052	N
10:36	229279	N
10:37	229508	N
10:38	229736	N
10:38	229972	N
10:39	230208	N
10:40	230437	N
10:40	230610	V
10:41	230896	N
10:42	231135	N
10:42	231365	N
10:43	231598	N
10:43	231828	N
10:44	232056	N
10:45	232284	N
10:45	232517	N
10:46	232757	N
10:47	232986	N
10:47	233219	N
10:48	233450	N
10:49	233691	N
10:49	233927	N
10:50	234164	N
10:51	234397	N
10:51	234632	N
10:52	234866	N
10:52	235000	V
10:53	235345	N
10:54	235582	N
10:55	235816	N
10:55	236051	N
10:56	236288	N
10:57	236522	N
10:57	236755	N
10:58	236989	N
10:58	237223	N
10:59	237459	N
11:00	237699	N
11:00	237942	N
11:01	238181	N
11:02	238423	N
11:02	238666	N
11:03	238917	N
11:04	239158	N
11:05	239401	N
11:05	239640	N
11:06	239884	N
11:07	240120	N
11:07	240363	N
11:08	240605	N
11:09	240841	N
11:09	241076	N
11:10	241313	N
11:10	241557	N
11:11	241795	N
11:12	242032	N
11:12	242270	N
11:13	242512	N
11:14	242750	N
11:14	242992	N
11:15	243235	N
11:16	243474	N
11:16	243709	N
11:17	243948	N
11:18	244195	N
11:18	244432	N
11:19	244668	N
11:20	244903	N
11:20	245144	N
11:21	245378	N
11:22	245619	N
11:22	245857	N
11:23	246096	N
11:24	246330	N
11:24	246572	N
11:25	246817	N
11:26	247056	N
11:26	247291	N
11:27	247530	N
11:28	247770	N
11:28	248011	N
11:29	248252	N
11:30	248492	N
11:30	248732	N
11:31	248967	N
11:32	249208	N
11:32	249452	N
11:33	249691	N
11:34	249927	N
11:34	250163	N
11:35	250403	N
11:36	250646	N
11:36	250890	N
11:37	251128	N
11:38	251367	N
11:38	251604	N
11:39	251846	N
11:40	252090	N
11:40	252332	N
11:41	252566	N
11:42	252801	N
11:42	253038	N
11:43	253282	N
11:44	253528	N
11:44	253767	N
11:45	254006	N
11:46	254243	N
11:46	254488	N
11:47	254733	N
11:48	254974	N
11:48	255208	N
11:49	255445	N
11:50	255682	N
11:50	255925	N
11:51	256170	N
11:52	256408	N
11:52	256644	N
11:53	256881	N
11:54	257127	N
11:54	257366	N
11:55	257606	N
11:56	257840	N
11:56	258077	N
11:57	258312	N
11:58	258553	N
11:58	258798	N
11:59	259033	N
12:00	259267	N
12:00	259507	N
12:01	259756	N
12:02	259997	N
12:02	260238	N
12:03	260478	N
12:04	260722	N
12:04	260961	N
12:05	261203	N
12:06	261448	N
12:06	261686	N
12:07	261920	N
12:08	262161	N
12:08	262410	N
12:09	262651	N
12:10	262887	N
12:10	263123	N
12:11	263365	N
12:12	263611	N
12:12	263855	N
12:13	264094	N
12:14	264332	N
12:14	264569	N
12:15	264815	N
12:16	265059	N
12:16	265299	N
12:17	265532	N
12:18	265766	N
12:18	266002	N
12:19	266243	N
12:20	266484	N
12:20	266720	N
12:21	266955	N
12:22	267192	N
12:22	267437	N
12:23	267679	N
12:24	267921	N
12:24	268159	N
12:25	268397	N
12:26	268633	N
12:26	268877	N
12:27	269123	N
12:28	269360	N
12:28	269595	N
12:29	269830	N
12:30	270077	N
12:30	270314	N
12:31	270552	N
12:32	270786	N
12:32	271022	N
12:33	271256	N
12:34	271496	N
12:34	271737	N
12:35	271973	N
12:36	272205	N
12:36	272443	N
12:37	272688	N
12:38	272923	N
12:38	273156	N
12:39	273390	N
12:40	273630	N
12:40	273866	N
12:41	274106	N
12:42	274343	N
12:42	274581	N
12:43	274811	N
12:44	275050	N
12:44	275291	N
12:45	275524	N
12:45	275750	N
12:46	275983	N
12:47	276219	N
12:47	276453	N
12:48	276689	N
12:49	276926	N
12:49	277156	N
12:50	277385	N
12:51	277618	N
12:51	277859	N
12:52	278090	N
12:53	278321	N
12:53	278549	N
12:54	278784	N
12:55	279012	N
12:55	279246	N
12:56	279480	N
12:56	279709	N
12:57	279936	N
12:58	280163	N
12:58	280399	N
12:59	280631	N
13:00	280864	N
13:00	281087	N
13:01	281315	N
13:02	281542	N
13:02	281776	N
13:03	282008	N
13:03	282238	N
13:04	282468	N
13:05	282696	N
13:05	282930	N
13:06	283166	N
13:07	283398	N
13:07	283623	N
13:08	283848	N
13:09	284079	N
13:09	284310	N
13:10	284542	N
13:11	284771	N
13:11	285000	N
13:12	285226	N
13:12	285459	N
13:13	285696	N
13:14	285926	N
13:14	286153	N
13:15	286384	N
13:16	286618	N
13:16	286849	N
13:17	287080	N
13:18	287315	N
13:18	287542	N
13:19	287770	N
13:19	287998	N
13:20	288232	N
13:21	288457	N
13:21	288683	N
13:22	288911	N
13:23	289135	N
13:23	289359	N
13:24	289586	N
13:25	289818	N
13:25	290046	N
13:26	290274	N
13:26	290500	N
13:27	290730	N
13:28	290967	N
13:28	291198	N
13:29	291422	N
13:30	291651	N
13:30	291884	N
13:31	292115	N
13:32	292345	N
13:32	292576	N
13:33	292808	N
13:33	293033	N
13:34	293264	N
13:35	293499	N
13:35	293730	N
13:36	293957	N
13:37	294192	N
13:37	294429	N
13:38	294662	F
13:39	294901	N
13:39	295141	N
13:40	295376	N
13:41	295609	N
13:41	295844	N
13:42	296046	V
13:43	296320	N
13:43	296562	N
13:44	296790	N
13:45	297024	N
13:45	297261	N
13:46	297497	N
13:47	297734	N
13:47	297965	N
13:48	298203	N
13:49	298440	N
13:49	298684	N
13:50	298920	N
13:51	299160	N
13:51	299398	N
13:52	299642	N
13:53	299880	N
13:53	300117	N
13:54	300362	N
13:55	300601	N
13:55	300834	N
13:56	301070	N
13:56	301317	N
13:57	301557	N
13:58	301785	F
13:58	302016	N
13:59	302253	N
14:00	302497	N
14:00	302736	N
14:01	302972	N
14:02	303205	N
14:02	303444	N
14:03	303691	N
14:04	303936	N
14:04	304176	N
14:05	304402	N
14:06	304643	N
14:06	304882	N
14:07	305126	N
14:08	305365	N
14:08	305595	N
14:09	305837	N
14:10	306072	N
14:10	306314	N
14:11	306552	N
14:12	306797	N
14:12	307030	N
14:13	307266	N
14:14	307501	N
14:14	307748	N
14:15	307994	N
14:16	308232	N
14:16	308468	N
14:17	308710	N
14:18	308958	N
14:18	309194	N
14:19	309434	N
14:20	309672	N
14:20	309912	N
14:21	310147	N
14:22	310386	N
14:22	310633	N
14:23	310872	N
14:24	311107	N
14:24	311347	N
14:25	311598	N
14:26	311839	N
14:26	312074	N
14:27	312309	N
14:28	312557	N
14:28	312802	N
14:29	313043	N
14:30	313282	N
14:30	313519	N
14:31	313760	N
14:32	314001	N
14:32	314245	N
14:33	314483	N
14:34	314721	N
14:34	314959	N
14:35	315201	N
14:36	315446	N
14:36	315686	N
14:37	315928	N
14:38	316170	N
14:38	316409	N
14:39	316655	N
14:40	316901	N
14:40	317152	N
14:41	317391	N
14:42	317632	N
14:42	317873	N
14:43	318126	N
14:44	318378	N
14:45	318623	N
14:45	318862	N
14:46	319112	N
14:47	319367	N
14:47	319616	N
14:48	319855	N
14:49	320096	N
14:49	320346	N
14:50	320593	N
14:51	320842	N
14:51	321089	N
14:52	321336	N
14:53	321580	N
14:53	321832	N
14:54	322083	N
14:55	322330	N
14:56	322577	N
14:56	322822	N
14:56	322918	~
14:57	323065	N
14:58	323310	N
14:58	323565	N
14:59	323806	N
15:00	324049	N
15:00	324286	N
15:01	324541	N
15:02	324788	N
15:02	325037	N
15:03	325277	N
15:04	325523	N
15:04	325766	N
15:05	326011	N
15:06	326257	N
15:06	326497	N
15:07	326741	N
15:08	326989	N
15:09	327242	N
15:09	327487	N
15:10	327723	N
15:11	327960	N
15:11	328200	N
15:12	328446	N
15:13	328688	N
15:13	328930	N
15:14	329176	N
15:15	329410	F
15:15	329656	N
15:16	329901	N
15:17	330141	N
15:17	330376	N
15:18	330613	N
15:19	330854	N
15:19	330957	|
15:19	331096	N
15:19	331137	~
15:20	331335	N
15:21	331566	N
15:21	331807	N
15:22	332036	N
15:22	332277	N
15:23	332513	N
15:24	332753	N
15:24	332983	N
15:25	333214	N
15:26	333365	V
15:26	333687	N
15:27	333754	+
15:27	333869	V
15:27	333989	V
15:28	334162	V
15:28	334324	+
15:28	334395	N
15:29	334630	N
15:30	334871	N
15:30	335108	N
15:31	335355	N
15:32	335587	N
15:32	335822	N
15:33	336058	N
15:34	336300	N
15:34	336544	N
15:35	336780	N
15:36	337021	N
15:36	337258	N
15:37	337506	N
15:38	337745	N
15:38	337989	N
15:39	338230	N
15:40	338480	N
15:40	338719	F
15:41	338963	N
15:42	339207	N
15:42	339451	N
15:43	339690	N
15:44	339938	N
15:44	340186	F
15:45	340425	N
15:46	340653	N
15:46	340895	N
15:47	341140	N
15:48	341381	F
15:48	341621	N
15:49	341856	N
15:50	342100	N
15:50	342335	N
15:51	342581	N
15:52	342830	N
15:52	343077	N
15:53	343313	N
15:54	343550	N
15:54	343784	N
15:55	344031	N
15:56	344277	N
15:56	344513	N
15:57	344747	N
15:58	344978	N
15:58	345226	N
15:59	345464	N
16:00	345702	N
16:00	345934	N
16:01	346167	N
16:02	346408	N
16:02	346654	N
16:03	346899	F
16:04	347136	N
16:04	347375	N
16:05	347613	N
16:06	347855	N
16:06	348099	N
16:07	348342	N
16:08	348540	V
16:08	348816	N
16:09	349050	N
16:10	349295	N
16:10	349538	N
16:11	349772	N
16:12	350004	N
16:12	350241	N
16:13	350490	N
16:14	350732	N
16:14	350967	F
16:15	351205	N
16:16	351447	N
16:16	351685	N
16:17	351927	N
16:18	352170	N
16:18	352406	F
16:19	352638	N
16:20	352875	N
16:20	353120	N
16:21	353358	N
16:22	353591	N
16:22	353821	F
16:23	354060	N
16:24	354293	N
16:24	354533	N
16:25	354772	N
16:26	355006	N
16:26	355238	N
16:27	355476	N
16:28	355727	N
16:28	355963	N
16:29	356198	N
16:30	356431	N
16:30	356677	N
16:31	356911	N
16:32	357150	N
16:32	357383	N
16:33	357621	N
16:34	357847	N
16:34	358090	N
16:35	358331	N
16:36	358567	N
16:36	358795	N
16:37	359028	N
16:37	359270	N
16:38	359504	N
16:39	359741	N
16:39	359980	N
16:40	360218	N
16:41	360447	N
16:41	360681	N
16:42	360923	N
16:43	361154	N
16:43	361392	N
16:44	361626	N
16:45	361861	N
16:45	362093	N
16:46	362332	N
16:47	362578	N
16:47	362817	N
16:48	363048	N
16:49	363288	N
16:49	363541	N
16:50	363784	N
16:51	364020	N
16:51	364258	N
16:52	364502	N
16:53	364750	N
16:53	364995	N
16:54	365237	N
16:55	365479	N
16:55	365723	N
16:56	365973	N
16:57	366221	N
16:57	366462	N
16:58	366705	N
16:59	366951	N
16:59	367198	N
17:00	367444	N
17:01	367695	N
17:02	367943	N
17:02	368188	N
17:03	368434	N
17:04	368692	N
17:04	368937	N
17:05	369183	N
17:06	369428	N
17:06	369677	N
17:07	369919	N
17:08	370170	N
17:08	370417	N
17:09	370664	N
17:10	370903	N
17:10	371152	N
17:11	371408	N
17:12	371659	N
17:13	371901	N
17:13	372150	N
17:14	372399	N
17:15	372653	N
17:15	372910	N
17:16	373156	N
17:17	373400	N
17:17	373655	N
17:18	373915	N
17:19	374161	N
17:20	374404	N
17:20	374651	N
17:21	374900	N
17:22	375147	N
17:22	375395	N
17:23	375641	N
17:24	375885	N
17:24	376126	N
17:25	376377	N
17:26	376625	N
17:26	376873	N
17:27	377114	N
17:28	377359	N
17:28	377604	N
17:29	377851	N
17:30	378099	N
17:30	378342	N
17:31	378579	N
17:32	378828	N
17:33	379080	N
17:33	379323	N
17:34	379560	N
17:35	379805	N
17:35	380052	N
17:36	380300	N
17:37	380552	N
17:37	380795	N
17:38	381044	N
17:39	381291	N
17:39	381547	N
17:40	381797	N
17:41	382047	N
17:41	382293	N
17:42	382544	N
17:43	382791	N
17:44	383045	N
17:44	383299	N
17:45	383551	N
17:46	383793	N
17:46	384050	N
17:47	384305	N
17:48	384559	N
17:48	384805	N
17:49	385052	N
17:50	385301	N
17:50	385554	N
17:51	385812	N
17:52	386062	N
17:53	386305	N
17:53	386555	N
17:54	386813	N
17:55	387064	N
17:55	387312	N
17:56	387558	N
17:57	387810	N
17:57	388061	N
17:58	388318	N
17:59	388570	N
18:00	388820	N
18:00	389068	N
18:01	389329	N
18:02	389584	N
18:02	389839	N
18:03	390087	N
18:04	390342	N
18:04	390595	N
18:05	390852	N
18:06	391108	N
18:07	391360	N
18:07	391606	N
18:08	391866	N
18:09	392124	N
18:09	392375	N
18:10	392622	N
18:11	392871	N
18:12	393124	N
18:12	393377	N
18:13	393633	N
18:14	393881	N
18:14	394127	N
18:15	394382	N
18:16	394642	N
18:16	394892	N
18:17	395134	N
18:18	395384	N
18:18	395636	N
18:19	395889	N
18:20	396141	N
18:21	396389	N
18:21	396638	N
18:22	396885	N
18:23	397142	N
18:23	397393	N
18:24	397642	N
18:25	397890	N
18:25	398142	N
18:26	398388	N
18:27	398641	N
18:28	398899	N
18:28	399151	N
18:29	399397	N
18:30	399651	N
18:30	399909	N
18:31	400163	N
18:32	400411	N
18:32	400659	N
18:33	400908	N
18:34	401161	N
18:35	401419	N
18:35	401671	N
18:36	401916	N
18:37	402171	N
18:37	402431	N
18:38	402683	N
18:39	402930	N
18:39	403183	N
18:40	403437	N
18:41	403694	N
18:42	403952	N
18:42	404203	N
18:43	404453	N
18:44	404706	N
18:44	404968	N
18:45	405222	N
18:46	405470	N
18:47	405720	N
18:47	405973	N
18:48	406227	N
18:49	406484	N
18:49	406738	N
18:50	406990	N
18:51	407238	N
18:51	407505	N
18:52	407766	N
18:53	408024	N
18:54	408273	N
18:54	408529	N
18:55	408783	N
18:56	409042	N
18:56	409296	N
18:57	409547	N
18:58	409796	N
18:59	410058	N
18:59	410317	N
19:00	410574	N
19:01	410826	N
19:01	411082	N
19:02	411337	N
19:03	411598	N
19:04	411858	N
19:04	412114	N
19:05	412365	N
19:06	412624	N
19:06	412885	N
19:07	413138	N
19:08	413389	N
19:08	413639	N
19:09	413885	N
19:10	414139	N
19:11	414394	N
19:11	414646	N
19:12	414894	N
19:13	415149	N
19:13	415408	N
19:14	415664	N
19:15	415911	N
19:16	416164	N
19:16	416414	N
19:17	416671	N
19:18	416932	N
19:18	417183	N
19:19	417432	N
19:20	417690	N
19:20	417949	N
19:21	418203	N
19:22	418445	N
19:23	418696	N
19:23	418949	N
19:24	419205	N
19:25	419466	N
19:25	419718	N
19:26	419972	N
19:27	420227	N
19:28	420496	N
19:28	420751	N
19:29	421005	N
19:30	421256	N
19:30	421515	N
19:31	421770	N
19:32	422032	N
19:33	422284	N
19:33	422536	N
19:34	422786	N
19:35	423049	N
19:35	423304	N
19:36	423558	N
19:37	423811	N
19:37	424067	N
19:38	424324	N
19:39	424586	N
19:40	424847	N
19:40	425105	N
19:41	425356	N
19:42	425619	N
19:42	425876	N
19:43	426130	N
19:44	426383	N
19:45	426634	N
19:45	426885	N
19:46	427145	N
19:47	427400	N
19:47	427653	N
19:48	427904	N
19:49	428165	N
19:50	428422	N
19:50	428680	N
19:51	428932	N
19:52	429190	N
19:52	429442	N
19:53	429702	N
19:54	429958	N
19:55	430214	N
19:55	430463	N
19:56	430721	N
19:57	430981	N
19:57	431235	N
19:58	431487	N
19:59	431740	N
19:59	431994	N
20:00	432140	V
20:01	432507	N
20:01	432689	A
20:02	432996	N
20:03	433256	N
20:04	433522	N
20:04	433778	N
20:05	434027	N
20:06	434278	N
20:07	434530	N
20:07	434787	N
20:08	435045	N
20:09	435297	N
20:09	435549	N
20:10	435803	N
20:11	436069	N
20:12	436326	N
20:12	436578	N
20:13	436835	N
20:14	437094	N
20:14	437354	N
20:15	437616	N
20:16	437875	N
20:17	438132	N
20:17	438389	N
20:18	438653	N
20:19	438912	N
20:19	439164	N
20:20	439417	N
20:21	439676	N
20:22	439929	N
20:22	440188	N
20:23	440441	N
20:24	440697	N
20:24	440952	N
20:25	441215	N
20:26	441471	N
20:27	441726	N
20:27	441981	N
20:28	442242	N
20:29	442498	N
20:29	442757	N
20:30	443015	N
20:31	443270	N
20:32	443526	N
20:32	443792	N
20:33	444051	N
20:34	444306	N
20:34	444560	N
20:35	444820	N
20:36	445079	N
20:37	445342	N
20:37	445596	N
20:38	445849	N
20:39	446103	N
20:39	446371	N
20:40	446627	N
20:41	446881	N
20:42	447135	N
20:42	447394	N
20:43	447653	N
20:44	447917	N
20:44	448173	N
20:45	448430	N
20:46	448685	N
20:47	448955	N
20:47	449211	N
20:48	449468	N
20:49	449724	N
20:49	449980	N
20:50	450236	N
20:51	450502	N
20:52	450767	N
20:52	451030	N
20:53	451292	N
20:54	451562	N
20:55	451824	N
20:55	452085	N
20:56	452345	N
20:57	452608	N
20:57	452872	N
20:58	453138	N
20:59	453398	N
21:00	453658	N
21:00	453922	N
21:01	454194	N
21:02	454456	N
21:03	454711	N
21:03	454972	N
21:04	455237	N
21:05	455503	N
21:06	455772	N
21:06	456033	N
21:07	456290	N
21:08	456555	N
21:08	456821	N
21:09	457082	N
21:10	457335	N
21:11	457594	N
21:11	457853	N
21:12	458113	N
21:13	458379	N
21:13	458634	N
21:14	458892	N
21:15	459154	N
21:16	459426	N
21:16	459689	N
21:17	459952	N
21:18	460215	N
21:19	460477	N
21:19	460745	N
21:20	461013	N
21:21	461278	N
21:22	461534	N
21:22	461804	N
21:23	462071	N
21:24	462339	N
21:24	462598	N
21:25	462865	N
21:26	463126	N
21:27	463395	N
21:27	463661	N
21:28	463927	N
21:29	464189	N
21:30	464459	N
21:30	464723	N
21:31	464981	N
21:32	465242	N
21:33	465503	N
21:33	465760	N
21:34	466023	N
21:35	466279	N
21:35	466539	N
21:36	466798	N
21:37	467065	N
21:38	467326	N
21:38	467585	N
21:39	467847	N
21:40	468116	N
21:41	468379	N
21:41	468646	N
21:42	468907	N
21:43	469170	N
21:43	469431	N
21:44	469698	N
21:45	469958	N
21:46	470212	N
21:46	470470	N
21:47	470731	N
21:48	470992	N
21:49	471255	N
21:49	471515	N
21:50	471772	N
21:51	472032	N
21:51	472302	N
21:52	472560	N
21:53	472815	N
21:54	473067	N
21:54	473329	N
21:55	473590	N
21:56	473851	N
21:56	474107	N
21:57	474361	N
21:58	474615	N
21:59	474882	N
21:59	475135	N
22:00	475390	N
22:01	475645	N
22:01	475906	N
22:02	476165	N
22:03	476424	N
22:04	476683	N
22:04	476938	N
22:05	477195	N
22:06	477456	N
22:06	477716	N
22:07	477969	N
22:08	478224	N
22:09	478482	N
22:09	478736	N
22:10	478867	V
22:11	479241	N
22:11	479498	N
22:12	479753	N
22:13	480015	N
22:14	480272	N
22:14	480528	N
22:15	480782	N
22:16	481045	N
22:16	481299	N
22:17	481561	N
22:18	481817	N
22:19	482075	N
22:19	482328	N
22:20	482595	N
22:21	482852	N
22:21	483108	N
22:22	483360	N
22:23	483511	V
22:24	483869	N
22:24	484130	N
22:25	484388	N
22:26	484641	N
22:26	484896	N
22:27	485159	N
22:28	485417	N
22:29	485671	N
22:29	485924	N
22:30	486179	N
22:31	486432	N
22:31	486691	N
22:32	486947	N
22:33	487203	N
22:34	487453	N
22:34	487716	N
22:35	487975	N
22:36	488236	N
22:36	488491	N
22:37	488753	N
22:38	489012	N
22:39	489280	N
22:39	489543	N
22:40	489806	N
22:41	490065	N
22:42	490333	N
22:42	490597	N
22:43	490856	N
22:44	491113	N
22:44	491374	N
22:45	491634	N
22:46	491895	N
22:47	492155	N
22:47	492288	V
22:48	492665	N
22:49	492934	N
22:49	493193	N
22:50	493446	N
22:51	493703	N
22:52	493963	N
22:52	494222	N
22:53	494486	N
22:54	494743	N
22:55	495001	N
22:55	495257	N
22:56	495526	N
22:57	495784	N
22:57	496039	N
22:58	496297	N
22:59	496557	N
23:00	496818	N
23:00	497081	N
23:01	497340	N
23:02	497597	N
23:02	497853	N
23:03	498122	N
23:04	498385	N
23:05	498642	N
23:05	498897	N
23:06	499156	N
23:07	499416	N
23:08	499680	N
23:08	499937	N
23:09	500193	N
23:10	500447	N
23:10	500714	N
23:11	500971	N
23:12	501230	N
23:13	501484	N
23:13	501745	N
23:14	502005	N
23:15	502266	N
23:15	502526	N
23:16	502783	N
23:17	503041	N
23:18	503309	N
23:18	503569	N
23:19	503827	N
23:20	504090	N
23:20	504355	N
23:21	504621	N
23:22	504889	N
23:23	505155	N
23:23	505422	N
23:24	505691	N
23:25	505964	N
23:26	506231	N
23:26	506496	N
23:27	506763	N
23:28	507031	N
23:29	507300	N
23:29	507575	N
23:30	507844	N
23:31	508108	N
23:32	508379	N
23:32	508650	N
23:33	508915	N
23:34	509175	N
23:35	509441	N
23:35	509705	N
23:36	509971	N
23:37	510239	N
23:38	510504	N
23:38	510765	N
23:39	511035	N
23:40	511302	N
23:41	511563	N
23:41	511824	N
23:42	512087	N
23:43	512346	N
23:43	512611	N
23:44	512870	N
23:45	513129	N
23:46	513383	N
23:46	513649	N
23:47	513906	N
23:48	514165	N
23:48	514419	N
23:49	514596	V
23:50	514934	N
23:50	515079	V
23:51	515457	N
23:52	515718	N
23:53	515972	N
23:53	516236	N
23:54	516493	N
23:55	516750	N
23:56	517001	N
23:56	517258	N
23:57	517511	N
23:58	517772	N
23:58	518031	N
23:59	518289	N
24:00	518548	N
24:01	518816	N
24:01	519079	N
24:02	519342	N
24:03	519606	N
24:04	519871	N
24:04	520136	N
24:05	520407	N
24:06	520670	N
24:07	520931	N
24:07	521193	N
24:08	521464	N
24:09	521727	N
24:09	521981	N
24:10	522241	N
24:11	522500	N
24:12	522764	N
24:12	523031	N
24:13	523293	N
24:14	523550	N
24:15	523818	N
24:15	524091	N
24:16	524231	V
24:17	524623	N
24:18	524887	N
24:18	525153	N
24:19	525417	N
24:20	525692	N
24:20	525782	+
24:20	525834	V
24:21	526172	V
24:22	526365	V
24:22	526500	V
24:22	526612	V
24:23	526709	V
24:23	526806	V
24:23	526912	V
24:23	527025	V
24:24	527128	V
24:24	527235	V
24:24	527332	V
24:25	527470	+
24:25	527505	N
24:25	527698	+
24:25	527756	V
24:26	527992	V
24:27	528248	V
24:28	528487	V
24:28	528735	V
24:29	528966	V
24:30	529240	V
24:30	529525	V
24:31	529783	V
24:32	530064	V
24:33	530324	V
24:33	530508	V
24:33	530612	V
24:34	530816	+
24:34	530897	N
24:35	531089	A
24:36	531393	N
24:36	531540	+
24:36	531630	V
24:37	531821	V
24:37	531934	V
24:38	532127	+
24:38	532186	N
24:39	532444	N
24:39	532707	N
24:40	532972	N
24:41	533240	N
24:41	533506	N
24:42	533772	N
24:43	534034	N
24:43	534167	V
24:44	534571	N
24:45	534833	N
24:46	535091	N
24:47	535356	N
24:47	535618	N
24:48	535883	N
24:49	536143	N
24:50	536402	N
24:50	536662	N
24:51	536934	N
24:52	537198	N
24:52	537453	N
24:53	537713	N
24:54	537974	N
24:55	538238	N
24:55	538499	N
24:56	538755	N
24:57	539011	N
24:57	539267	N
24:58	539535	N
24:59	539794	N
25:00	540049	N
25:00	540309	N
25:01	540573	N
25:02	540838	N
25:03	541107	N
25:03	541368	N
25:04	541634	N
25:05	541900	N
25:06	542175	N
25:06	542441	N
25:07	542698	N
25:08	542960	N
25:08	543221	N
25:09	543485	N
25:10	543753	N
25:11	544012	N
25:11	544269	N
25:12	544535	N
25:13	544805	N
25:14	545070	N
25:14	545324	N
25:15	545585	N
25:16	545851	N
25:16	546116	N
25:17	546387	N
25:18	546645	N
25:19	546903	N
25:19	547169	N
25:20	547437	N
25:21	547700	N
25:22	547956	N
25:22	548222	N
25:23	548483	N
25:24	548755	N
25:25	549023	N
25:25	549293	N
25:26	549553	N
25:27	549826	N
25:28	550101	N
25:28	550368	N
25:29	550637	N
25:30	550904	N
25:31	551172	N
25:31	551446	N
25:32	551715	N
25:33	551982	N
25:34	552248	N
25:34	552526	N
25:35	552797	N
25:36	553061	N
25:37	553330	N
25:37	553597	N
25:38	553865	N
25:39	554143	N
25:40	554409	N
25:40	554674	N
25:41	554943	N
25:42	555210	N
25:42	555474	N
25:43	555732	N
25:44	555994	N
25:45	556251	N
25:45	556514	N
25:46	556774	N
25:47	557034	N
25:48	557294	N
25:48	557561	N
25:49	557826	N
25:50	558090	N
25:50	558354	N
25:51	558624	N
25:52	558891	N
25:53	559162	N
25:53	559427	N
25:54	559694	N
25:55	559956	N
25:56	560231	N
25:56	560494	N
25:57	560754	N
25:58	561012	N
25:59	561275	N
25:59	561538	N
26:00	561807	N
26:01	562066	N
26:02	562325	N
26:02	562589	N
26:03	562859	N
26:04	563125	N
26:04	563381	N
26:05	563643	N
26:06	563906	N
26:07	564173	N
26:07	564441	N
26:08	564704	N
26:09	564961	N
26:10	565230	N
26:10	565497	N
26:11	565762	N
26:12	566021	N
26:13	566286	N
26:13	566552	N
26:14	566821	N
26:15	567091	N
26:15	567358	N
26:16	567621	N
26:17	567895	N
26:18	568164	N
26:18	568433	N
26:19	568697	N
26:20	568968	N
26:21	569232	N
26:21	569501	N
26:22	569765	N
26:23	570030	N
26:24	570290	N
26:24	570563	N
26:25	570829	N
26:26	571086	N
26:27	571349	N
26:27	571611	N
26:28	571880	N
26:29	572149	N
26:30	572410	N
26:30	572671	N
26:31	572937	N
26:32	573210	N
26:32	573474	N
26:33	573733	N
26:34	573994	N
26:35	574259	N
26:35	574524	N
26:36	574793	N
26:37	575057	N
26:38	575316	N
26:38	575586	N
26:39	575858	N
26:40	576126	N
26:41	576387	N
26:41	576655	N
26:42	576917	N
26:43	577187	N
26:44	577456	N
26:44	577719	N
26:45	577979	N
26:46	578247	N
26:46	578510	N
26:47	578772	N
26:48	579033	N
26:49	579296	N
26:49	579559	N
26:50	579823	N
26:51	580088	N
26:52	580352	N
26:52	580614	N
26:53	580883	N
26:54	581145	N
26:55	581407	N
26:55	581665	N
26:56	581931	N
26:57	582190	N
26:57	582455	N
26:58	582713	N
26:59	582973	N
27:00	583232	N
27:00	583500	N
27:01	583761	N
27:02	584017	N
27:02	584278	N
27:03	584542	N
27:04	584807	N
27:05	585073	N
27:05	585334	N
27:06	585594	N
27:07	585856	N
27:08	586127	N
27:08	586391	N
27:09	586649	N
27:10	586910	N
27:11	587172	N
27:11	587437	N
27:12	587708	N
27:13	587970	N
27:13	588231	N
27:14	588500	N
27:15	588774	N
27:16	589045	N
27:16	589307	N
27:17	589572	N
27:18	589835	N
27:19	590102	N
27:19	590369	N
27:20	590632	N
27:21	590888	N
27:22	591157	N
27:22	591419	N
27:23	591681	N
27:24	591940	N
27:25	592203	N
27:25	592468	N
27:26	592733	N
27:27	593000	N
27:27	593265	N
27:28	593532	N
27:29	593808	N
27:30	594075	N
27:30	594338	N
27:31	594504	V
27:32	594869	N
27:33	595135	N
27:33	595405	N
27:34	595665	N
27:35	595927	N
27:36	596191	N
27:36	596465	N
27:37	596730	N
27:38	596990	N
27:39	597257	N
27:39	597521	N
27:40	597795	N
27:41	598064	N
27:42	598330	N
27:42	598591	N
27:43	598862	N
27:44	599131	N
27:44	599394	N
27:45	599652	N
27:46	599914	N
27:47	600178	N
27:47	600445	N
27:48	600710	N
27:49	600976	N
27:50	601239	N
27:50	601514	N
27:51	601780	N
27:52	602047	N
27:53	602312	N
27:53	602583	N
27:54	602852	N
27:55	603124	N
27:56	603387	N
27:56	603649	N
27:57	603913	N
27:58	604185	N
27:59	604451	N
27:59	604709	N
28:00	604976	N
28:01	605239	N
28:01	605508	N
28:02	605645	V
28:03	606038	N
28:04	606298	N
28:04	606453	V
28:05	606828	N
28:06	607090	N
28:07	607346	N
28:07	607603	N
28:08	607861	N
28:09	608122	N
28:09	608298	V
28:10	608641	N
28:11	608898	N
28:12	609163	N
28:12	609430	N
28:13	609692	N
28:14	609948	N
28:15	610208	N
28:15	610467	N
28:16	610734	N
28:17	611000	N
28:17	611261	N
28:18	611516	N
28:19	611782	N
28:20	612049	N
28:20	612312	N
28:21	612570	N
28:22	612829	N
28:23	613089	N
28:23	613353	N
28:24	613619	N
28:25	613882	N
28:25	614138	N
28:26	614405	N
28:27	614670	N
28:28	614935	N
28:28	615195	N
28:29	615454	N
28:30	615713	N
28:31	615980	N
28:31	616120	V
28:32	616506	N
28:33	616761	N
28:33	617028	N
28:34	617288	N
28:35	617548	N
28:36	617804	N
28:36	618067	N
28:37	618330	N
28:38	618593	N
28:39	618859	N
28:39	619124	N
28:40	619390	N
28:41	619660	N
28:42	619927	N
28:42	620189	N
28:43	620452	N
28:44	620721	N
28:44	620985	N
28:45	621253	N
28:46	621514	N
28:47	621778	N
28:47	622043	N
28:48	622315	N
28:49	622582	N
28:50	622844	N
28:50	623111	N
28:51	623376	N
28:52	623648	N
28:53	623921	N
28:53	624188	N
28:54	624448	N
28:55	624719	N
28:56	624990	N
28:56	625258	N
28:57	625517	N
28:58	625782	N
28:59	626044	N
28:59	626310	N
29:00	626575	N
29:01	626837	N
29:01	627098	N
29:02	627371	N
29:03	627632	N
29:04	627895	N
29:04	628154	N
29:05	628420	N
29:06	628686	N
29:07	628952	N
29:07	629214	N
29:08	629477	N
29:09	629741	N
29:10	630013	N
29:10	630272	N
29:11	630531	N
29:12	630793	N
29:12	631056	N
29:13	631322	N
29:14	631587	N
29:15	631849	N
29:15	632109	N
29:16	632377	N
29:17	632646	N
29:18	632909	N
29:18	633167	N
29:19	633431	N
29:20	633692	N
29:20	633957	N
29:21	634222	N
29:22	634481	N
29:23	634739	N
29:23	635004	N
29:24	635272	N
29:25	635532	N
29:26	635788	N
29:26	636050	N
29:27	636313	N
29:28	636584	N
29:29	636848	N
29:29	637114	N
29:30	637376	N
29:31	637649	N
29:31	637913	N
29:32	638176	N
29:33	638434	N
29:34	638697	N
29:34	638958	N
29:35	639223	N
29:36	639483	N
29:37	639741	N
29:37	640001	N
29:38	640272	N
29:39	640539	N
29:40	640802	N
29:40	641067	N
29:41	641335	N
29:42	641607	N
29:42	641876	N
29:43	642144	N
29:44	642408	N
29:45	642676	N
29:45	642951	N
29:46	643216	N
29:47	643475	N
29:48	643738	N
29:48	644002	N
29:49	644272	N
29:50	644539	N
29:51	644805	N
29:51	645069	N
29:52	645343	N
29:53	645616	N
29:54	645882	N
29:54	646144	N
29:55	646412	N
29:56	646678	N
29:57	646945	N
29:57	647210	N
29:58	647472	N
29:59	647735	N
30:00	648007	N
30:00	648271	N
30:01	648533	N
30:02	648795	N
30:02	649060	N
30:03	649326	N
30:04	649596	N
30:05	649857	N
