0:00	46	F
0:00	209	V
0:01	483	N
0:01	697	F
0:02	853	V
0:03	1181	N
0:03	1378	V
0:04	1579	V
0:05	1860	N
0:05	2058	V
0:06	2242	V
0:07	2558	N
0:07	2747	V
0:08	2930	V
0:08	3201	N
0:09	3411	V
0:10	3606	V
0:10	3886	N
0:11	4097	F
0:11	4262	V
0:12	4565	N
0:13	4766	F
0:13	4944	V
0:14	5196	N
0:15	5414	F
0:15	5568	V
0:16	5899	N
0:16	6105	V
0:17	6304	V
0:18	6482	~
0:18	6579	N
0:18	6776	F
0:19	6941	V
0:19	7169	N
0:20	7349	N
0:20	7547	F
0:21	7750	N
0:22	7951	N
0:22	8093	~
0:22	8147	N
0:23	8317	V
0:23	8532	N
0:24	8727	N
0:24	8922	N
0:25	9087	V
0:25	9294	N
0:26	9472	N
0:26	9649	N
0:27	9824	V
0:27	10035	N
0:28	10233	N
0:28	10423	N
0:29	10595	V
0:29	10791	N
0:30	10973	N
0:30	11155	N
0:31	11324	V
0:32	11526	N
0:32	11697	N
0:33	11888	N
0:33	12055	V
0:34	12273	N
0:34	12471	N
0:35	12680	N
0:35	12894	N
0:36	13030	~
0:36	13099	N
0:36	13292	F
0:37	13486	N
0:37	13673	N
0:38	13850	N
0:39	14046	N
0:39	14251	N
0:40	14449	N
0:40	14619	V
0:41	14845	N
0:41	15036	N
0:42	15218	V
0:42	15431	N
0:43	15628	N
0:43	15831	F
0:44	16033	N
0:45	16241	N
0:45	16422	V
0:46	16677	N
0:46	16899	N
0:47	17088	V
0:48	17312	N
0:48	17515	N
0:49	17715	F
0:49	17916	N
0:50	18110	N
0:50	18306	N
0:51	18519	N
0:52	18727	N
0:52	18930	N
0:53	19092	V
0:53	19333	N
0:54	19538	N
0:54	19725	V
0:55	19850	~
0:55	19919	N
0:55	20105	N
0:56	20291	F
0:56	20453	V
0:57	20721	N
0:58	20932	F
0:58	21104	V
0:59	21359	N
0:59	21560	N
1:00	21728	V
1:00	21948	N
1:01	22148	N
1:02	22339	F
1:02	22415	+
1:02	22492	V
1:03	22738	N
1:03	22944	N
1:04	23128	V
1:04	23383	N
1:05	23590	N
1:06	23786	V
1:06	24002	N
1:07	24205	N
1:07	24395	V
1:08	24563	V
1:09	24855	N
1:09	25060	F
1:10	25231	V
1:10	25513	N
1:11	25716	F
1:11	25874	V
1:12	26121	N
1:13	26321	N
1:13	26502	V
1:14	26723	N
1:14	26916	N
1:15	27118	V
1:15	27257	+
1:16	27397	N
1:16	27632	N
1:17	27844	V
1:17	28013	V
1:18	28314	N
1:19	28505	V
1:19	28670	V
1:20	28963	N
1:21	29170	F
1:21	29344	V
1:22	29578	N
1:22	29780	N
1:23	29984	N
1:23	30190	N
1:24	30399	N
1:24	30598	V
1:25	30761	V
1:26	31063	N
1:26	31248	V
1:27	31439	V
1:28	31702	N
1:28	31913	F
1:29	32076	V
1:29	32317	N
1:30	32516	N
1:30	32719	F
1:31	32926	N
1:32	33130	N
1:32	33317	N
1:33	33522	N
1:33	33737	N
1:34	33956	F
1:34	34123	V
1:35	34405	N
1:36	34611	F
1:36	34691	+
1:36	34772	V
1:37	35021	N
1:37	35223	N
1:38	35384	V
1:38	35632	N
1:39	35841	N
1:40	36024	V
1:40	36135	+
1:40	36247	N
1:41	36451	N
1:41	36649	F
1:42	36815	V
1:42	37044	N
1:43	37239	N
1:43	37430	N
1:44	37611	N
1:45	37810	N
1:45	38036	F
1:46	38204	V
1:47	38534	N
1:47	38720	V
1:48	38892	V
1:48	39186	N
1:49	39381	F
1:49	39550	V
1:50	39790	N
1:51	40007	N
1:51	40183	V
1:52	40510	N
1:53	40719	V
1:53	40899	V
1:54	41235	N
1:55	41416	V
1:55	41593	V
1:56	41904	N
1:56	42090	V
1:57	42282	V
1:58	42569	N
1:58	42781	F
1:59	42940	V
2:00	43245	N
2:00	43441	V
2:01	43620	V
2:01	43908	N
2:02	44094	F
2:02	44260	V
2:03	44538	N
2:04	44751	F
2:04	44920	V
2:05	45226	N
2:06	45428	F
2:06	45598	V
2:07	45855	N
2:07	46061	F
2:08	46211	V
2:09	46490	N
2:09	46698	F
2:10	46866	V
2:10	47147	N
2:11	47346	F
2:11	47428	+
2:11	47510	V
2:12	47769	N
2:13	47971	N
2:13	48130	V
2:14	48373	N
2:14	48577	N
2:15	48752	V
2:16	49020	N
2:16	49239	N
2:17	49412	V
2:17	49655	N
2:18	49864	N
2:18	49955	+
2:19	50046	V
2:19	50322	N
2:20	50517	V
2:20	50676	V
2:21	51007	N
2:22	51204	V
2:22	51391	V
2:23	51708	N
2:24	51902	V
2:24	52083	V
2:25	52331	N
2:25	52541	F
2:26	52681	V
2:27	52977	N
2:27	53191	F
2:28	53281	+
2:28	53372	V
2:28	53636	N
2:29	53835	N
2:30	54002	V
2:30	54259	N
2:31	54463	N
2:31	54634	V
2:32	54864	N
2:33	55083	N
2:33	55273	V
2:33	55421	+
2:34	55569	N
2:34	55799	F
2:35	55952	V
2:36	56266	N
2:36	56454	V
2:37	56628	V
2:38	56932	N
2:38	57122	F
2:39	57300	V
2:39	57553	N
2:40	57771	F
2:40	57933	V
2:41	58230	N
2:42	58444	F
2:42	58608	V
2:43	58877	N
2:44	59075	F
2:44	59222	V
2:45	59504	N
2:45	59714	F
2:46	59798	+
2:46	59883	V
2:47	60149	N
2:47	60352	N
2:48	60519	V
2:48	60763	N
2:49	60971	N
2:49	61159	V
2:50	61405	N
2:51	61619	N
2:51	61785	V
2:52	62097	N
2:53	62321	N
2:53	62481	V
2:54	62749	N
2:54	62953	N
2:55	63116	V
2:56	63364	N
2:56	63562	N
2:57	63750	V
2:57	63865	+
2:57	63980	N
2:58	64191	N
2:58	64397	F
2:59	64562	V
3:00	64854	N
3:00	65053	F
3:01	65216	V
3:01	65449	N
3:02	65634	N
3:02	65820	F
3:03	66017	N
3:03	66218	N
3:04	66419	N
3:04	66589	V
3:05	66792	N
3:06	66976	N
3:06	67168	F
3:07	67331	V
3:07	67560	N
3:08	67747	N
3:08	67931	N
3:09	68133	N
3:09	68342	N
3:10	68552	F
3:10	68719	V
3:11	68979	N
3:12	69190	F
3:12	69347	V
3:13	69617	N
3:13	69812	F
3:14	69962	V
3:15	70230	N
3:15	70441	F
3:16	70604	V
3:16	70882	N
3:17	71084	F
3:17	71245	V
3:18	71510	N
3:19	71711	F
3:19	71868	V
3:20	72126	N
3:20	72318	F
3:21	72486	V
3:22	72755	N
3:22	72969	N
3:23	73134	V
3:23	73377	N
3:24	73579	N
3:24	73740	V
3:25	73992	N
3:26	74193	F
3:26	74266	+
3:26	74339	V
3:27	74594	N
3:27	74802	N
3:28	74969	V
3:28	75210	N
3:29	75407	N
3:30	75607	V
3:30	75711	+
3:30	75815	N
3:31	76010	N
3:31	76204	N
3:32	76400	N
3:32	76590	N
3:33	76793	F
3:33	76964	V
3:34	77240	N
3:35	77449	F
3:35	77605	V
3:36	77869	N
3:36	78071	F
3:37	78232	V
3:37	78464	N
3:38	78646	N
3:38	78839	N
3:39	79042	N
3:40	79262	N
3:40	79468	V
3:41	79639	V
3:42	79931	N
3:42	80126	F
3:43	80282	V
3:43	80525	N
3:44	80723	N
3:44	80898	V
3:45	81108	N
3:45	81310	N
3:46	81509	F
3:46	81674	V
3:47	81894	N
3:47	82078	N
3:48	82274	N
3:48	82435	V
3:49	82647	N
3:50	82829	N
3:50	83005	N
3:51	83167	V
3:51	83400	N
3:52	83606	N
3:52	83804	N
3:53	84002	N
3:53	84194	N
3:54	84395	F
3:54	84553	V
3:55	84814	N
3:56	85012	N
3:56	85166	V
3:57	85401	N
3:57	85606	N
3:58	85810	N
3:58	86016	N
3:59	86225	N
4:00	86432	F
4:00	86591	V
4:01	86884	N
4:01	87069	V
4:02	87225	V
4:03	87488	N
4:03	87694	F
4:04	87865	V
4:04	88107	N
4:05	88308	N
4:05	88487	V
4:06	88714	N
4:07	88929	N
4:07	89124	V
4:08	89366	N
4:08	89562	F
4:09	89719	V
4:09	89996	N
4:10	90211	F
4:11	90374	V
4:11	90631	N
4:12	90834	N
4:12	91002	V
4:13	91224	N
4:13	91426	N
4:14	91630	N
4:15	91844	N
4:15	92054	N
4:16	92266	F
4:16	92446	V
4:17	92723	N
4:18	92927	F
4:18	93085	V
4:19	93348	N
4:19	93543	F
4:20	93695	V
4:20	93924	N
4:21	94130	N
4:21	94318	V
4:22	94537	N
4:23	94733	N
4:23	94929	F
4:24	95095	V
4:24	95357	N
4:25	95556	F
4:25	95715	V
4:26	95950	N
4:27	96153	N
4:27	96335	V
4:28	96572	N
4:28	96788	N
4:29	96997	F
4:29	97162	V
4:30	97463	N
4:31	97651	V
4:31	97812	V
4:32	98103	N
4:33	98297	V
4:33	98477	V
4:34	98748	N
4:34	98952	F
4:35	99031	+
4:35	99111	V
4:35	99354	N
4:36	99560	N
4:37	99735	V
4:37	99964	N
4:38	100163	N
4:38	100332	V
4:39	100568	N
4:39	100787	N
4:40	100977	V
4:41	101248	N
4:41	101452	F
4:42	101610	V
4:42	101870	N
4:43	102077	F
4:43	102238	V
4:44	102487	N
4:45	102688	N
4:45	102862	V
4:46	102977	+
4:46	103092	N
4:46	103292	N
4:47	103495	F
4:47	103660	V
4:48	103932	N
4:49	104132	F
4:49	104287	V
4:50	104532	N
4:50	104740	N
4:51	104934	V
4:52	105165	N
4:52	105374	N
4:53	105577	V
4:53	105742	V
4:54	106047	N
4:55	106240	V
4:55	106400	V
4:56	106661	N
4:56	106854	F
4:57	107015	V
4:57	107262	N
4:58	107473	N
4:59	107684	N
4:59	107896	N
5:00	108113	N
5:00	108307	V
5:01	108478	V
5:02	108764	N
5:02	108952	V
5:03	109125	V
5:03	109439	N
5:04	109650	F
5:05	109815	V
5:05	110065	N
5:06	110277	N
5:06	110441	V
5:07	110679	N
5:07	110879	N
5:08	111044	V
5:09	111309	N
5:09	111529	F
5:10	111693	V
5:11	111977	N
5:11	112182	F
5:11	112262	+
5:12	112342	V
5:12	112599	N
5:13	112805	N
5:13	112977	V
5:14	113201	N
5:15	113402	N
5:15	113590	V
5:16	113845	N
5:16	114057	N
5:17	114254	V
5:18	114493	N
5:18	114706	N
5:19	114888	V
5:19	115002	+
5:19	115117	N
5:20	115314	N
5:20	115523	F
5:21	115747	N
5:22	115976	N
5:22	116194	V
5:23	116411	N
5:23	116627	N
5:24	116843	N
5:25	117064	N
5:25	117282	F
5:26	117441	V
5:26	117693	N
5:27	117909	N
5:28	118106	V
5:28	118349	N
5:29	118553	N
5:29	118751	N
5:30	118953	N
5:30	119155	N
5:31	119353	F
5:31	119511	V
5:32	119770	N
5:33	119984	F
5:33	120148	V
5:34	120409	N
5:35	120612	N
5:35	120798	V
5:36	121008	N
5:36	121196	N
5:37	121382	N
5:37	121542	V
5:38	121754	N
5:38	121943	N
5:39	122073	~
5:39	122137	N
5:39	122314	V
5:40	122546	N
5:40	122741	N
5:41	122935	N
5:41	123097	V
5:42	123334	N
5:43	123535	N
5:43	123726	V
5:44	123921	N
5:44	124101	N
5:45	124298	N
5:45	124469	V
5:46	124697	N
5:46	124902	N
5:47	125099	F
5:47	125263	V
5:48	125488	N
5:49	125679	N
5:49	125862	N
5:50	126051	N
5:50	126240	N
5:51	126428	N
5:51	126622	F
5:52	126815	N
5:52	127008	N
5:53	127201	N
5:53	127362	V
5:54	127571	N
5:54	127753	N
5:55	127941	N
5:55	128103	V
5:56	128303	N
5:56	128492	N
5:57	128697	F
5:57	128870	V
5:58	129112	N
5:59	129311	N
5:59	129494	N
6:00	129684	N
6:00	129873	N
6:01	130058	N
6:01	130239	V
6:02	130429	N
6:02	130611	N
6:03	130799	N
6:03	130971	V
6:04	131177	N
6:04	131371	N
6:05	131565	N
6:05	131734	V
6:06	131938	N
6:06	132110	N
6:07	132289	N
6:07	132463	F
6:08	132630	N
6:08	132808	N
6:09	132989	N
6:09	133054	|
6:09	133180	N
6:10	133366	N
6:11	133563	N
6:11	133753	N
6:12	133963	N
6:12	134028	|
6:12	134158	N
6:13	134345	N
6:13	134529	N
6:14	134709	F
6:14	134890	N
6:15	135083	N
6:15	135284	N
6:16	135370	+
6:16	135457	V
6:16	135716	N
6:17	135930	N
6:18	136102	V
6:18	136281	~
6:18	136345	N
6:19	136549	N
6:19	136736	V
6:20	136992	N
6:21	137204	N
6:21	137390	V
6:22	137533	+
6:22	137677	N
6:23	137908	F
6:23	138062	V
6:24	138386	N
6:24	138560	V
6:25	138849	N
6:26	139049	N
6:26	139241	F
6:27	139412	V
6:28	139705	N
6:28	139921	N
6:29	140106	V
6:29	140340	N
6:30	140553	N
6:30	140752	F
6:31	140917	V
6:32	141199	N
6:32	141360	V
6:33	141632	N
6:34	141843	N
6:34	142060	F
6:35	142231	V
6:35	142505	N
6:36	142674	V
6:36	142918	N
6:37	143117	N
6:38	143316	N
6:38	143477	V
6:39	143741	N
6:39	143964	N
6:40	144184	F
6:40	144347	V
6:41	144651	N
6:42	144873	F
6:42	145026	V
6:43	145322	N
6:44	145521	F
6:44	145668	V
6:45	145944	N
6:45	146157	N
6:46	146371	F
6:47	146546	V
6:47	146826	N
6:48	147035	N
6:48	147219	V
6:49	147456	N
6:50	147677	N
6:50	147875	V
6:51	148051	V
6:52	148372	N
6:52	148587	F
6:53	148753	V
6:54	149048	N
6:54	149265	F
6:55	149419	V
6:55	149676	N
6:56	149869	N
6:56	150050	V
6:57	150311	N
6:58	150530	N
6:58	150739	V
6:59	150928	V
7:00	151273	N
7:00	151460	V
7:01	151737	N
7:02	151959	N
7:02	152159	F
7:03	152337	V
7:04	152667	N
7:04	152882	V
7:05	153077	V
7:06	153360	N
7:06	153570	F
7:07	153724	V
7:07	154015	N
7:08	154213	F
7:08	154374	V
7:09	154705	N
7:10	154914	V
7:10	155103	V
7:11	155397	N
7:12	155619	F
7:12	155785	V
7:13	156062	N
7:14	156264	F
7:14	156411	V
7:15	156694	N
7:15	156925	F
7:16	157089	V
7:17	157412	N
7:17	157627	F
7:18	157778	V
7:19	158080	N
7:19	158297	F
7:20	158445	V
7:20	158736	N
7:21	158949	F
7:21	159113	V
7:22	159446	N
7:23	159656	V
7:23	159832	V
7:24	160139	N
7:25	160343	F
7:25	160498	V
7:26	160803	N
7:27	161023	F
7:27	161195	V
7:28	161507	N
7:29	161722	F
7:29	161882	V
7:30	162167	N
7:31	162378	F
7:31	162533	V
7:32	162832	N
7:32	163035	F
7:33	163202	V
7:34	163534	N
7:34	163755	F
7:35	163925	V
7:36	164207	N
7:36	164414	F
7:37	164573	V
7:37	164850	N
7:38	165046	F
7:38	165211	V
7:39	165464	N
7:40	165674	N
7:40	165883	N
7:41	166103	N
7:42	166336	N
7:42	166541	V
7:43	166739	V
7:44	167060	N
7:44	167246	V
7:45	167429	V
7:46	167803	N
7:46	168009	V
7:47	168199	V
7:48	168518	N
7:48	168717	V
7:49	168898	V
7:50	169221	N
7:50	169403	V
7:51	169587	V
7:52	169928	N
7:52	170129	V
7:53	170330	V
7:54	170659	N
7:54	170855	V
7:55	171036	V
7:55	171348	N
7:56	171541	V
7:57	171720	V
7:57	172044	N
7:58	172249	V
7:58	172430	V
7:59	172754	N
8:00	172952	V
8:00	173140	V
8:01	173461	N
8:02	173642	V
8:02	173834	V
8:03	174139	N
8:04	174363	F
8:04	174535	V
8:05	174821	N
8:06	175027	F
8:06	175192	V
8:07	175504	N
8:08	175698	V
8:08	175870	V
8:09	176198	N
8:09	176397	V
8:10	176588	V
8:11	176895	N
8:11	177108	F
8:12	177273	V
8:13	177566	N
8:13	177757	V
8:14	177925	V
8:15	178250	N
8:15	178455	V
8:16	178643	V
8:17	178975	N
8:17	179165	V
8:18	179345	V
8:19	179641	N
8:19	179838	F
8:20	180004	V
8:20	180307	N
8:21	180508	V
8:21	180693	V
8:22	181048	N
8:23	181247	V
8:23	181422	V
8:24	181755	N
8:25	181942	V
8:25	182118	V
8:26	182472	N
8:27	182668	V
8:27	182853	V
8:28	183214	N
8:29	183405	V
8:29	183585	V
8:30	183914	N
8:31	184104	V
8:31	184273	V
8:32	184576	N
8:33	184779	V
8:33	184972	V
8:34	185307	N
8:35	185500	V
8:35	185674	V
8:36	185980	N
8:37	186174	V
8:37	186339	V
8:38	186643	N
8:39	186841	V
8:39	187018	V
8:40	187364	N
8:41	187573	V
8:41	187745	V
8:42	188048	N
8:42	188240	F
8:43	188418	V
8:44	188685	N
8:44	188886	F
8:45	189051	V
8:46	189395	N
8:46	189599	V
8:47	189765	V
8:48	190098	N
8:48	190298	V
8:49	190467	V
8:49	190772	N
8:50	190956	V
8:50	191130	V
8:51	191419	N
8:52	191645	F
8:52	191804	V
8:53	192102	N
8:54	192307	F
8:54	192470	V
8:55	192794	N
8:56	192989	V
8:56	193148	V
8:57	193470	N
8:57	193674	V
8:58	193846	V
8:59	194154	N
8:59	194357	V
9:00	194532	V
9:01	194844	N
9:01	195033	V
9:02	195202	V
9:03	195507	N
9:03	195716	V
9:04	195888	V
9:04	196173	N
9:05	196379	F
9:05	196542	V
9:06	196781	N
9:07	196980	N
9:07	197165	F
9:08	197358	N
9:08	197540	N
9:09	197745	F
9:09	197918	V
9:10	198257	N
9:11	198454	V
9:11	198628	V
9:12	198958	N
9:13	199146	V
9:13	199313	V
9:14	199591	N
9:15	199800	F
9:15	199964	V
9:16	200290	N
9:16	200490	V
9:17	200668	V
9:18	201009	N
9:18	201198	V
9:19	201360	V
9:20	201683	N
9:20	201868	V
9:21	202041	V
9:22	202359	N
9:22	202577	F
9:23	202746	V
9:23	203026	N
9:24	203232	F
9:24	203388	V
9:25	203692	N
9:26	203883	F
9:26	204047	V
9:27	204360	N
9:28	204569	V
9:28	204749	V
9:29	205038	N
9:30	205253	F
9:30	205408	V
9:31	205700	N
9:31	205895	V
9:32	206055	V
9:33	206386	N
9:33	206590	V
9:34	206771	V
9:35	207077	N
9:35	207278	V
9:36	207445	V
9:37	207737	N
9:37	207942	F
9:38	208104	V
9:38	208372	N
9:39	208585	F
9:39	208755	V
9:40	209064	N
9:41	209276	F
9:41	209432	V
9:42	209754	N
9:43	209947	V
9:43	210128	V
9:44	210407	N
9:45	210616	F
9:45	210780	V
9:46	211085	N
9:46	211301	F
9:47	211474	V
9:48	211772	N
9:48	211979	F
9:49	212140	V
9:50	212422	N
9:50	212615	F
9:51	212779	V
9:51	213097	N
9:52	213314	F
9:53	213486	V
9:53	213771	N
9:54	213983	F
9:54	214148	V
9:55	214450	N
9:56	214644	V
9:56	214800	V
9:57	215102	N
9:58	215310	V
9:58	215499	V
9:59	215782	N
9:59	215993	F
10:00	216149	V
10:01	216415	N
10:01	216620	F
10:02	216783	V
10:02	217069	N
10:03	217287	F
10:04	217451	V
10:04	217750	N
10:05	217960	F
10:05	218116	V
10:06	218409	N
10:07	218614	F
10:07	218766	V
10:08	219038	N
10:09	219247	F
10:09	219420	V
10:10	219718	N
10:10	219936	F
10:11	220091	V
10:12	220364	N
10:12	220571	F
10:13	220723	V
10:13	221002	N
10:14	221200	F
10:14	221359	V
10:15	221636	N
10:16	221848	F
10:16	222015	V
10:17	222281	N
10:18	222490	F
10:18	222656	V
10:19	222925	N
10:19	223128	F
10:20	223287	V
10:21	223566	N
10:21	223775	F
10:22	223949	V
10:22	224226	N
10:23	224427	F
10:24	224673	N
10:24	224959	N
10:25	225147	V
10:25	225307	V
10:26	225617	N
10:27	225814	V
10:27	225993	V
10:28	226244	N
10:29	226442	N
10:29	226636	N
10:30	226825	N
10:30	227012	N
10:31	227193	N
10:31	227377	N
10:32	227566	N
10:32	227744	N
10:33	227939	N
10:33	228137	N
10:34	228347	N
10:34	228565	N
10:35	228771	F
10:35	228947	V
10:36	229227	N
10:37	229428	F
10:37	229591	V
10:38	229839	N
10:39	230049	F
10:39	230226	V
10:40	230494	N
10:40	230706	N
10:41	230894	V
10:41	231118	N
10:42	231328	N
10:43	231537	F
10:43	231697	V
10:44	231978	N
10:44	232181	F
10:45	232372	V
10:46	232606	N
10:46	232820	N
10:47	233026	N
10:47	233224	N
10:48	233425	N
10:48	233629	F
10:49	233790	V
10:50	234047	N
10:50	234255	N
10:51	234433	V
10:51	234709	N
10:52	234931	F
10:53	235093	V
10:53	235400	N
10:54	235617	F
10:54	235773	V
10:55	236035	N
10:56	236235	F
10:56	236390	V
10:57	236646	N
10:57	236869	N
10:58	237066	V
10:59	237344	N
10:59	237556	F
11:00	237717	V
11:01	238042	N
11:01	238238	V
11:02	238401	V
11:03	238691	N
11:03	238899	F
11:04	239075	V
11:04	239356	N
11:05	239570	F
11:05	239739	V
11:06	240012	N
11:07	240220	F
11:07	240369	V
11:08	240646	N
11:09	240860	F
11:09	241029	V
11:10	241321	N
11:10	241531	F
11:11	241696	V
11:12	241954	N
11:12	242164	F
11:13	242322	V
11:13	242595	N
11:14	242794	F
11:14	242948	V
11:15	243252	N
11:16	243468	F
11:16	243649	V
11:17	243930	N
11:18	244133	F
11:18	244288	V
11:19	244576	N
11:19	244776	F
11:20	244931	V
11:21	245231	N
11:21	245444	F
11:22	245616	V
11:23	245899	N
11:23	246113	F
11:24	246277	V
11:24	246558	N
11:25	246753	F
11:25	246916	V
11:26	247181	N
11:27	247387	F
11:27	247557	V
11:28	247831	N
11:29	248042	F
11:29	248205	V
11:30	248465	N
11:30	248676	F
11:31	248840	V
11:31	249103	N
11:32	249296	F
11:32	249454	V
11:33	249724	N
11:34	249941	F
11:34	250108	V
11:35	250421	N
11:36	250623	V
11:36	250791	V
11:37	251064	N
11:37	251269	F
11:38	251419	V
11:39	251691	N
11:39	251907	F
11:40	252071	V
11:41	252372	N
11:41	252577	F
11:42	252739	V
11:42	253047	N
11:43	253242	V
11:43	253407	V
11:44	253679	N
11:45	253892	F
11:45	254069	V
11:46	254378	N
11:47	254597	F
11:47	254759	V
11:48	255047	N
11:49	255254	F
11:49	255412	V
11:50	255696	N
11:50	255899	F
11:51	256060	V
11:52	256372	N
11:52	256595	F
11:53	256768	V
11:54	257082	N
11:54	257283	V
11:55	257462	V
11:55	257736	N
11:56	257938	F
11:56	258096	V
11:57	258429	N
11:58	258638	V
11:58	258827	V
11:59	259127	N
12:00	259345	F
12:00	259515	V
12:01	259790	N
12:02	259998	F
12:02	260141	V
12:03	260445	N
12:04	260668	F
12:04	260833	V
12:05	261140	N
12:05	261353	F
12:06	261517	V
12:07	261800	N
12:07	262014	F
12:08	262173	V
12:09	262456	N
12:09	262677	F
12:10	262839	V
12:10	263146	N
12:11	263358	F
12:12	263525	V
12:12	263818	N
12:13	264029	F
12:13	264184	V
12:14	264479	N
12:15	264688	V
12:15	264876	V
12:16	265214	N
12:17	265410	V
12:17	265591	V
12:18	265883	N
12:19	266090	F
12:19	266251	V
12:20	266546	N
12:21	266768	V
12:21	266920	V
12:22	267257	N
12:22	267470	V
12:23	267645	V
12:24	267948	N
12:24	268155	F
12:25	268312	V
12:26	268609	N
12:26	268817	F
12:27	268976	V
12:28	269290	N
12:28	269515	F
12:29	269684	V
12:29	269973	N
12:30	270197	F
12:31	270370	V
12:31	270657	N
12:32	270859	F
12:32	271014	V
12:33	271323	N
12:34	271553	F
12:34	271713	V
12:35	272029	N
12:36	272233	V
12:36	272397	V
12:37	272716	N
12:38	272916	V
12:38	273085	V
12:39	273395	N
12:40	273604	V
12:40	273781	V
12:41	274092	N
12:41	274304	F
12:42	274491	V
12:43	274772	N
12:43	274976	F
12:44	275139	V
12:45	275417	N
12:45	275635	F
12:46	275804	V
12:46	276095	N
12:47	276312	F
12:47	276467	V
12:48	276783	N
12:49	276980	V
12:49	277157	V
12:50	277434	N
12:51	277649	F
12:51	277806	V
12:52	278117	N
12:53	278341	F
12:53	278516	V
12:54	278805	N
12:55	279014	V
12:55	279174	V
12:56	279453	N
12:56	279663	F
12:57	279820	V
12:58	280148	N
12:58	280348	V
12:59	280529	V
13:00	280854	N
13:00	281050	V
13:01	281224	V
13:01	281501	N
13:02	281699	F
13:02	281855	V
13:03	282148	N
13:04	282374	F
13:04	282537	V
13:05	282859	N
13:06	283053	V
13:06	283230	V
13:07	283543	N
13:08	283734	V
13:08	283890	V
13:09	284182	N
13:10	284404	F
13:10	284569	V
13:11	284860	N
13:11	285080	F
13:12	285235	V
13:13	285519	N
13:13	285722	F
13:14	285894	V
13:14	286177	N
13:15	286397	F
13:16	286561	V
13:16	286851	N
13:17	287069	F
13:17	287224	V
13:18	287502	N
13:19	287719	F
13:19	287867	V
13:20	288163	N
13:20	288356	V
13:21	288539	V
13:22	288879	N
13:23	289083	V
13:23	289254	V
13:24	289531	N
13:24	289740	F
13:25	289891	V
13:26	290170	N
13:26	290379	F
13:27	290535	V
13:27	290850	N
13:28	291054	V
13:28	291237	V
13:29	291535	N
13:30	291748	F
13:30	291911	V
13:31	292174	N
13:32	292379	F
13:32	292524	V
13:33	292816	N
13:33	293038	F
13:34	293205	V
13:35	293487	N
13:35	293696	F
13:36	293851	V
13:37	294152	N
13:37	294353	F
13:38	294529	V
13:38	294797	N
13:39	295012	F
13:39	295177	V
13:40	295469	N
13:41	295689	F
13:41	295844	V
13:42	296132	N
13:43	296334	F
13:43	296507	V
13:44	296781	N
13:44	296991	F
13:45	297160	V
13:46	297451	N
13:46	297667	F
13:47	297827	V
13:48	298118	N
13:48	298331	F
13:49	298492	V
13:49	298788	N
13:50	298988	V
13:50	299148	V
13:51	299464	N
13:52	299686	V
13:52	299848	V
13:53	300130	N
13:54	300340	F
13:54	300501	V
13:55	300788	N
13:56	300996	F
13:56	301151	V
13:57	301425	N
13:57	301638	F
13:58	301810	V
13:59	302081	N
13:59	302294	F
14:00	302457	V
14:00	302755	N
14:01	302966	F
14:02	303124	V
14:02	303408	N
14:03	303626	F
14:03	303796	V
14:04	304088	N
14:05	304303	F
14:05	304458	V
14:06	304778	N
14:07	304987	F
14:07	305150	V
14:08	305415	N
14:08	305626	F
14:09	305790	V
14:10	306108	N
14:10	306324	V
14:11	306504	V
14:12	306821	N
14:12	307015	V
14:13	307195	V
14:14	307492	N
14:14	307696	F
14:15	307854	V
14:16	308161	N
14:16	308386	F
14:17	308547	V
14:17	308860	N
14:18	309082	F
14:19	309242	V
14:19	309528	N
14:20	309729	F
14:20	309885	V
14:21	310207	N
14:22	310428	F
14:22	310595	V
14:23	310898	N
14:24	311111	F
14:24	311276	V
14:25	311570	N
14:26	311780	F
14:26	311926	V
14:27	312213	N
14:27	312432	F
14:28	312605	V
14:29	312910	N
14:29	313123	F
14:30	313282	V
14:30	313547	N
14:31	313756	F
14:31	313914	V
14:32	314169	N
14:33	314398	N
14:33	314587	V
14:34	314864	N
14:35	315081	N
14:35	315259	V
14:36	315591	N
14:37	315800	V
14:37	315959	V
14:38	316271	N
14:39	316475	F
14:39	316652	V
14:40	316910	N
14:40	317119	N
14:41	317314	N
14:41	317506	N
14:42	317700	N
14:43	317904	N
14:43	318115	N
14:44	318315	N
14:44	318516	N
14:45	318737	F
14:45	318892	V
14:46	319202	N
14:47	319420	F
14:47	319581	V
14:48	319822	N
14:48	320017	N
14:49	320206	N
14:49	320373	V
14:50	320628	N
14:51	320848	N
14:51	321061	F
14:52	321269	N
14:52	321476	N
14:53	321685	F
14:54	321850	V
14:54	322082	N
14:55	322279	N
14:55	322471	N
14:56	322644	V
14:56	322864	N
14:57	323082	N
14:58	323320	F
14:58	323484	V
14:58	323548	~
14:59	323809	N
15:00	324007	V
15:00	324182	V
15:01	324368	~
15:01	324464	N
15:01	324672	N
15:02	324837	V
15:03	325086	N
15:03	325167	|
15:03	325300	N
15:04	325513	F
15:04	325688	V
15:05	325815	|
15:05	325996	N
15:05	326108	~
15:06	326211	F
15:06	326294	+
15:06	326378	V
15:07	326639	N
15:07	326846	N
15:08	327007	V
15:09	327279	N
15:09	327502	N
15:10	327706	V
15:10	327833	+
15:11	327961	N
15:11	328174	N
15:12	328388	F
15:12	328554	V
15:13	328842	N
15:14	329050	F
15:14	329197	V
15:15	329484	N
15:15	329708	F
15:16	329791	+
15:16	329875	V
15:17	330173	N
15:17	330391	N
15:18	330575	V
15:18	330808	N
15:19	331027	N
15:20	331232	V
15:20	331367	+
15:20	331503	N
15:21	331745	N
15:22	331960	V
15:22	332190	V
15:23	332497	N
15:24	332702	V
15:24	332893	V
15:25	333218	N
15:26	333413	V
15:26	333583	V
15:27	333893	N
15:28	334120	F
15:28	334301	V
15:29	334587	N
15:30	334806	F
15:30	334968	V
15:31	335176	V
15:32	335526	N
15:32	335710	V
15:33	335970	N
15:33	336198	N
15:34	336416	V
15:35	336617	V
15:35	336941	N
15:36	337141	V
15:37	337401	N
15:37	337625	N
15:38	337820	V
15:38	338022	V
15:39	338359	N
15:40	338566	V
15:40	338755	V
15:41	339089	N
15:42	339293	V
15:43	339555	N
15:43	339772	N
15:44	339975	F
15:44	340144	V
15:45	340451	N
15:46	340678	V
15:46	340847	V
15:47	341209	N
15:48	341406	V
15:49	341684	N
15:49	341907	N
15:50	342125	F
15:50	342293	V
15:51	342568	N
15:52	342792	N
15:52	342974	V
15:53	343226	N
15:53	343438	N
15:54	343644	F
15:55	343812	V
15:55	344059	N
15:56	344262	N
15:56	344478	N
15:57	344732	N
15:58	344973	N
15:58	345185	V
15:59	345377	V
16:00	345716	N
16:00	345910	V
16:01	346089	V
16:02	346427	N
16:02	346614	V
16:03	346792	V
16:04	347089	N
16:04	347322	F
16:05	347489	V
16:06	347799	N
16:06	347999	V
16:07	348176	V
16:08	348510	N
16:08	348697	V
16:09	348894	V
16:10	349236	N
16:10	349438	V
16:11	349629	V
16:12	349970	N
16:12	350068	+
16:12	350166	V
16:13	350431	N
16:14	350660	N
16:14	350852	V
16:15	351133	N
16:16	351387	N
16:16	351605	V
16:17	351895	N
16:18	352133	N
16:18	352344	V
16:19	352486	+
16:19	352628	N
16:20	352838	V
16:20	353000	V
16:21	353360	N
16:22	353563	V
16:22	353779	V
16:23	354056	N
16:24	354280	N
16:24	354490	F
16:25	354664	V
16:26	354970	N
16:26	355163	V
16:27	355369	V
16:28	355743	N
16:28	355942	V
16:29	356236	N
16:30	356466	N
16:30	356692	F
16:31	356927	N
16:32	357156	N
16:32	357339	V
16:33	357661	N
16:34	357895	V
16:34	358065	V
16:35	358417	N
16:36	358613	V
16:36	358798	V
16:37	359069	N
16:37	359277	F
16:38	359441	V
16:39	359748	N
16:39	359959	V
16:40	360158	V
16:41	360481	N
16:41	360583	+
16:41	360686	V
16:42	360930	N
16:43	361157	N
16:43	361353	V
16:44	361626	N
16:45	361864	N
16:45	362074	V
16:46	362368	N
16:47	362610	N
16:47	362806	V
16:48	363080	N
16:49	363312	N
16:49	363511	V
16:50	363627	+
16:50	363744	N
16:50	363947	N
16:51	364161	F
16:52	364362	V
16:52	364621	N
16:53	364860	N
16:54	365049	V
16:54	365360	N
16:55	365587	F
16:55	365755	V
16:56	365930	V
16:56	366098	N
16:57	366323	N
16:58	366558	N
16:58	366728	V
16:59	366931	V
16:59	367081	N
17:00	367315	N
17:00	367542	F
17:01	367715	V
17:02	368030	N
17:02	368219	V
17:03	368415	V
17:04	368756	N
17:04	368966	V
17:05	369211	N
17:06	369432	N
17:06	369648	F
17:07	369819	V
17:08	370145	N
17:08	370334	V
17:09	370528	V
17:10	370834	N
17:10	371051	V
17:11	371285	V
17:12	371533	N
17:12	371751	N
17:12	371851	+
17:13	371952	V
17:13	372225	N
17:14	372444	N
17:15	372653	V
17:15	372945	N
17:16	373192	N
17:17	373396	V
17:18	373686	N
17:18	373937	N
17:19	374133	V
17:20	374407	N
17:20	374621	N
17:21	374824	V
17:21	375094	N
17:22	375336	N
17:23	375551	V
17:23	375811	N
17:24	376048	N
17:25	376244	V
17:25	376547	N
17:26	376767	F
17:27	376943	V
17:27	377108	V
17:27	377196	+
17:28	377285	N
17:28	377517	N
17:29	377744	F
17:29	377909	V
17:30	378140	V
17:30	378300	N
17:31	378512	N
17:32	378728	F
17:32	378894	V
17:33	379195	N
17:33	379416	V
17:34	379604	V
17:35	379908	N
17:35	380117	F
17:36	380302	V
17:37	380523	N
17:37	380726	N
17:38	380933	F
17:38	381118	V
17:39	381391	N
17:40	381631	F
17:40	381820	V
17:41	382174	N
17:42	382370	V
17:42	382627	N
17:43	382849	N
17:44	383065	V
17:44	383262	V
17:45	383543	N
17:46	383785	N
17:46	383993	V
17:47	384284	N
17:48	384537	N
17:48	384739	V
17:49	385044	N
17:50	385263	S
17:50	385434	V
17:51	385619	V
17:51	385779	N
17:52	385989	S
17:52	386239	F
17:53	386399	V
17:54	386791	N
17:54	386894	+
17:54	386997	V
17:55	387260	N
17:56	387482	N
17:56	387680	V
17:57	387937	N
17:58	388194	N
17:58	388401	V
17:59	388723	N
18:00	388969	N
18:00	389135	V
18:01	389308	V
18:01	389473	N
18:02	389702	N
18:03	389920	V
18:03	390190	N
18:04	390435	N
18:05	390647	V
18:05	390952	N
18:06	391197	N
18:07	391401	V
18:08	391707	N
18:08	391937	N
18:09	392111	V
18:09	392290	V
18:10	392467	N
18:10	392732	N
18:11	392967	V
18:12	393220	N
18:12	393454	N
18:13	393656	V
18:14	393944	N
18:14	394175	N
18:15	394384	V
18:16	394658	N
18:16	394907	N
18:17	395120	V
18:18	395427	N
18:19	395660	N
18:19	395856	V
18:20	396137	N
18:21	396361	N
18:21	396574	V
18:22	396865	N
18:23	397110	N
18:23	397311	V
18:24	397602	N
18:25	397843	N
18:25	398058	V
18:26	398311	N
18:27	398538	N
18:27	398748	V
18:28	399031	N
18:29	399269	N
18:29	399482	V
18:30	399734	N
18:31	399965	N
18:31	400182	V
18:32	400458	N
18:33	400686	N
18:33	400915	V
18:34	401057	+
18:34	401199	N
18:35	401445	N
18:35	401641	V
18:36	401820	V
18:37	402176	N
18:37	402367	V
18:38	402609	N
18:38	402820	N
18:39	403041	V
18:40	403323	N
18:41	403567	N
18:41	403768	V
18:42	404072	N
18:43	404307	F
18:43	404457	V
18:44	404644	V
18:44	404807	N
18:45	405072	N
18:45	405270	V
18:46	405616	N
18:47	405729	+
18:47	405842	V
18:48	406113	N
18:48	406349	N
18:49	406548	V
18:50	406803	N
18:50	407026	N
18:51	407230	V
18:52	407543	N
18:52	407788	N
18:53	408010	V
18:54	408277	N
18:54	408520	N
18:55	408717	V
18:56	408975	N
18:56	409194	N
18:57	409403	V
18:57	409671	N
18:58	409916	N
18:59	410134	V
18:59	410397	N
19:00	410620	N
19:01	410820	V
19:01	411087	N
19:02	411300	N
19:03	411505	V
19:03	411745	N
19:04	411983	N
19:05	412215	V
19:05	412468	N
19:06	412704	N
19:06	412904	V
19:07	413169	N
19:08	413388	N
19:08	413585	V
19:09	413860	N
19:10	414097	N
19:10	414306	V
19:11	414559	N
19:12	414791	N
19:12	414989	V
19:13	415269	N
19:14	415502	N
19:14	415689	V
19:15	415969	N
19:16	416208	N
19:16	416426	V
19:17	416678	N
19:18	416909	N
19:18	417108	V
19:19	417376	N
19:19	417599	N
19:20	417793	V
19:21	418084	N
19:21	418319	N
19:22	418530	V
19:23	418799	N
19:23	419029	N
19:24	419234	V
19:25	419500	N
19:25	419716	N
19:26	419920	V
19:27	420179	N
19:27	420424	N
19:28	420636	V
19:28	420724	~
19:29	420899	N
19:29	421130	N
19:30	421328	V
19:31	421617	N
19:31	421849	N
19:32	422044	V
19:32	422163	+
19:33	422282	N
19:33	422507	N
19:34	422728	F
19:34	422945	N
19:35	423162	N
19:36	423371	N
19:36	423568	N
19:37	423764	N
19:37	423951	N
19:38	424136	N
19:38	424321	N
19:39	424510	N
19:39	424699	N
19:40	424884	N
19:40	425070	N
19:41	425251	N
19:41	425428	N
19:42	425598	N
19:42	425775	N
19:43	425946	N
19:43	426112	N
19:44	426276	N
19:44	426435	N
19:44	426596	N
19:45	426768	N
19:45	426949	N
19:46	427130	N
19:46	427302	N
19:47	427473	N
19:47	427632	N
19:48	427805	N
19:48	427976	N
19:49	428143	N
19:49	428315	N
19:50	428492	F
19:50	428671	F
19:51	428867	N
19:51	429066	F
19:52	429268	F
19:53	429482	N
19:53	429680	F
19:54	429875	N
19:54	429976	|
19:54	430064	N
19:55	430242	N
19:55	430427	N
19:56	430616	N
19:56	430795	N
19:57	430993	N
19:57	431195	N
19:58	431401	F
19:58	431608	N
19:59	431807	N
19:59	431995	F
20:00	432192	N
20:01	432386	N
20:01	432570	N
20:02	432755	N
20:02	432868	~
20:02	432932	N
20:03	433125	F
20:03	433332	N
20:04	433528	N
20:04	433662	~
20:04	433726	N
20:05	433922	N
20:05	434106	N
20:06	434292	N
20:06	434477	N
20:07	434665	N
20:07	434859	N
20:08	435041	N
20:08	435223	N
20:09	435420	N
20:10	435623	N
20:10	435824	N
20:11	436023	F
20:11	436222	N
20:12	436425	N
20:12	436629	N
20:13	436831	N
20:14	437042	N
20:14	437223	F
20:15	437431	N
20:15	437644	N
20:16	437857	F
20:16	437925	~
20:16	438077	N
20:17	438292	N
20:17	438464	F
20:18	438697	N
20:19	438893	N
20:19	438962	~
20:19	439094	N
20:20	439296	N
20:20	439482	N
20:21	439685	N
20:21	439867	V
20:22	440122	N
20:23	440334	N
20:23	440508	V
20:24	440728	N
20:24	440918	N
20:25	441108	F
20:25	441299	N
20:26	441485	N
20:26	441675	N
20:27	441884	F
20:28	442101	N
20:28	442325	N
20:29	442524	V
20:29	442671	|
20:29	442762	N
20:30	442973	N
20:31	443170	F
20:31	443379	N
20:32	443578	N
20:32	443774	F
20:33	443990	N
20:33	444199	N
20:34	444410	F
20:35	444623	N
20:35	444820	N
20:36	445022	N
20:36	445197	V
20:37	445417	N
20:37	445619	N
20:38	445803	F
20:38	445995	N
20:39	446186	N
20:39	446387	N
20:40	446589	N
20:41	446783	N
20:41	446983	N
20:42	447185	N
20:42	447383	F
20:43	447576	N
20:43	447766	N
20:44	447962	N
20:44	448167	N
20:45	448356	V
20:46	448657	N
20:46	448850	V
20:47	449084	N
20:48	449297	N
20:48	449497	F
20:49	449737	N
20:49	449961	N
20:50	450161	F
20:51	450385	N
20:51	450610	N
20:51	450719	+
20:52	450829	V
20:53	451086	N
20:53	451305	N
20:54	451503	V
20:54	451761	N
20:55	451987	N
20:56	452176	V
20:56	452429	N
20:57	452649	N
20:57	452854	V
20:58	453100	N
20:59	453326	N
20:59	453453	~
20:59	453533	V
21:00	453644	+
21:00	453756	N
21:00	453806	|
21:01	453967	N
21:01	454126	|
21:01	454171	Q
21:02	454388	N
21:02	454583	N
21:03	454782	F
21:03	454998	N
21:04	455214	N
21:05	455432	F
21:05	455639	V
21:06	455869	N
21:06	456088	N
21:07	456255	V
21:07	456439	V
21:08	456701	N
21:09	456897	V
21:09	457096	N
21:10	457300	N
21:10	457495	N
21:11	457582	~
21:13	458569	~
21:13	458621	Q
21:14	458798	N
21:14	458987	N
21:15	459178	F
21:16	459385	N
21:16	459600	N
21:17	459797	V
21:17	460070	N
21:18	460289	N
21:19	460496	V
21:19	460724	N
21:19	460774	~
21:20	460922	N
21:20	461110	F
21:21	461329	N
21:22	461552	N
21:22	461772	F
21:23	462001	N
21:23	462216	N
21:24	462412	V
21:25	462640	N
21:25	462842	N
21:26	463042	N
21:26	463249	N
21:27	463471	N
21:28	463684	V
21:28	463968	N
21:29	464215	N
21:30	464408	V
21:30	464681	N
21:31	464885	N
21:31	465086	F
21:32	465284	N
21:33	465486	N
21:33	465696	N
21:34	465908	N
21:34	466107	N
21:35	466304	N
21:35	466491	N
21:36	466688	N
21:36	466891	N
21:37	467091	N
21:38	467284	N
21:38	467471	N
21:39	467680	N
21:39	467909	N
21:40	468130	F
21:40	468352	N
21:41	468575	N
21:42	468793	F
21:42	469012	N
21:43	469225	N
21:43	469432	F
21:44	469625	N
21:45	469825	N
21:45	470024	N
21:46	470229	F
21:46	470439	N
21:47	470641	N
21:47	470843	N
21:48	471039	N
21:48	471237	N
21:49	471440	N
21:50	471633	V
21:50	471883	N
21:51	472127	N
21:52	472323	V
21:52	472511	V
21:53	472850	N
21:54	473062	N
21:54	473261	N
21:55	473462	N
21:55	473664	N
21:56	473861	V
21:57	474142	N
21:57	474349	V
21:58	474652	N
21:59	474895	F
21:59	475054	V
22:00	475341	N
22:00	475534	V
22:01	475758	N
22:02	475956	N
22:02	476147	V
22:03	476410	N
22:03	476626	N
22:04	476845	N
22:05	477061	N
22:05	477287	N
22:06	477474	V
22:06	477632	V
22:07	477929	N
22:08	478116	V
22:08	478314	N
22:09	478509	N
22:09	478705	N
22:10	478905	N
22:10	479100	N
22:11	479290	N
22:11	479481	F
22:12	479694	N
22:13	479929	N
22:13	480125	V
22:14	480402	N
22:14	480593	V
22:15	480826	N
22:16	481035	N
22:16	481246	F
22:17	481475	N
22:18	481704	N
22:18	481897	V
22:19	482183	N
22:19	482377	V
22:20	482602	N
22:21	482813	N
22:21	483024	F
22:22	483252	N
22:23	483482	N
22:23	483676	V
22:24	483946	N
22:24	484160	N
22:25	484334	V
22:25	484529	V
22:26	484797	N
22:26	484889	+
22:27	484982	V
22:27	485229	N
22:28	485460	N
22:29	485656	V
22:29	485912	N
22:30	486112	N
22:30	486305	V
22:31	486534	N
22:32	486745	N
22:32	486924	V
22:32	487066	+
22:33	487209	N
22:33	487422	V
22:34	487660	N
22:35	487873	N
22:35	488075	F
22:36	488271	N
22:36	488462	N
22:37	488643	N
22:37	488824	N
22:38	489000	N
22:38	489170	N
22:39	489356	N
22:39	489545	N
22:40	489744	N
22:40	489941	N
22:41	490148	N
22:42	490341	F
22:42	490558	N
22:43	490756	N
22:43	490950	N
22:44	491141	F
22:44	491319	N
22:45	491517	N
22:45	491725	F
22:46	491936	N
22:47	492146	N
22:47	492357	N
22:48	492533	V
22:48	492795	N
22:49	493004	N
22:49	493197	V
22:50	493436	N
22:51	493648	N
22:51	493846	V
22:52	494136	N
22:53	494356	V
22:53	494612	N
22:54	494828	N
22:55	495029	V
22:55	495252	N
22:56	495458	N
22:56	495644	F
22:57	495861	N
22:58	496104	N
22:58	496309	V
22:59	496629	N
23:00	496832	V
23:00	497104	N
23:01	497328	N
23:02	497525	V
23:02	497709	V
23:03	497885	~
23:03	498007	N
23:03	498195	V
23:04	498442	N
23:05	498665	N
23:05	498864	V
23:06	499084	N
23:06	499292	N
23:07	499495	F
23:08	499710	N
23:08	499913	N
23:08	500016	+
23:09	500052	~
23:09	500120	V
23:09	500399	N
23:10	500629	N
23:11	500833	V
23:11	501069	N
23:12	501291	N
23:13	501491	V
23:13	501722	N
23:14	501924	N
23:14	502113	V
23:15	502239	+
23:15	502365	N
23:16	502595	N
23:16	502814	F
23:17	503044	N
23:17	503264	N
23:18	503464	V
23:19	503762	N
23:19	503987	F
23:20	504085	+
23:20	504184	V
23:21	504426	N
23:21	504652	N
23:22	504855	V
23:23	505116	N
23:23	505340	N
23:24	505545	V
23:24	505688	+
23:25	505831	N
23:25	506057	N
23:26	506239	V
23:26	506416	V
23:27	506720	N
23:28	506943	V
23:28	507161	N
23:29	507368	N
23:29	507577	N
23:30	507746	V
23:31	507988	N
23:31	508188	N
23:32	508381	F
23:32	508584	N
23:33	508787	N
23:33	508993	N
23:34	509187	V
23:35	509419	N
23:35	509627	N
23:36	509821	F
23:36	510024	N
23:37	510227	N
23:37	510427	N
23:38	510603	V
23:39	510849	N
23:39	511070	N
23:40	511277	V
23:40	511557	N
23:41	511791	N
23:42	512016	F
23:42	512198	V
23:43	512458	N
23:44	512658	F
23:44	512867	N
23:45	513082	N
23:45	513294	V
23:46	513550	N
23:47	513773	N
23:47	513986	V
23:48	514193	N
23:48	514407	N
23:49	514623	F
23:50	514825	N
23:50	515019	N
23:51	515226	F
23:51	515413	V
23:52	515714	N
23:52	515817	+
23:53	515920	V
23:53	516204	N
23:54	516427	N
23:55	516627	V
23:55	516859	N
23:56	517071	N
23:56	517282	V
23:57	517389	+
23:57	517497	N
23:58	517705	N
23:58	517918	F
23:59	518129	N
23:59	518343	N
24:00	518558	V
24:00	518750	V
24:01	519037	N
24:02	519231	V
24:02	519441	N
24:03	519654	N
24:04	519875	F
24:04	520094	N
24:05	520319	N
24:05	520426	+
24:05	520534	V
24:06	520745	N
24:07	520963	N
24:07	521161	V
24:08	521413	N
24:08	521622	N
24:09	521826	V
24:10	522077	N
24:10	522313	N
24:11	522516	V
24:12	522789	N
24:12	523005	N
24:13	523207	V
24:13	523376	V
24:14	523496	+
24:14	523616	N
24:15	523808	F
24:15	524027	N
24:16	524260	N
24:16	524476	V
24:17	524724	N
24:18	524930	N
24:18	525138	F
24:19	525350	N
24:19	525553	N
24:20	525740	F
24:20	525933	N
24:21	526143	N
24:22	526349	N
24:22	526545	V
24:23	526770	N
24:23	526987	N
24:24	527180	V
24:25	527462	N
24:25	527681	F
24:26	527839	V
24:27	528122	N
24:27	528326	V
24:28	528560	N
24:28	528769	N
24:29	528972	N
24:29	529160	V
24:30	529387	N
24:31	529602	N
24:31	529782	V
24:32	530039	N
24:32	530238	F
24:33	530426	V
24:34	530690	N
24:34	530911	N
24:35	531077	V
24:35	531319	N
24:36	531525	N
24:36	531718	F
24:37	531928	N
24:38	532159	N
24:38	532348	V
24:39	532604	N
24:40	532843	N
24:40	533052	V
24:41	533345	N
24:42	533572	N
24:42	533765	V
24:43	533963	V
24:43	534222	N
24:44	534417	V
24:45	534619	N
24:45	534824	N
24:46	535021	N
24:46	535212	F
24:47	535404	N
24:47	535600	N
24:48	535813	F
24:49	536042	N
24:49	536281	N
24:50	536471	V
24:50	536757	N
24:51	536961	V
24:52	537240	N
24:52	537478	N
24:53	537689	F
24:54	537896	N
24:54	538093	N
24:55	538209	~
24:55	538290	F
24:55	538498	N
24:56	538708	N
24:56	538898	V
24:57	539150	N
24:58	539368	N
24:58	539456	~
24:58	539584	V
24:59	539800	N
25:00	540016	N
25:00	540227	F
25:01	540442	N
25:01	540644	N
25:02	540841	F
25:02	541042	N
25:03	541251	N
25:04	541464	F
25:04	541635	V
25:05	541902	N
25:05	542111	F
25:06	542196	+
25:06	542281	V
25:06	542516	N
25:07	542720	N
25:08	542895	V
25:08	543123	N
25:09	543324	N
25:09	543512	V
25:10	543773	N
25:11	543992	N
25:11	544172	V
25:12	544450	N
25:12	544664	F
25:13	544823	V
25:13	544966	+
25:14	545110	N
25:14	545310	F
25:15	545521	N
25:15	545730	N
25:16	545937	N
25:16	546112	V
25:17	546382	N
25:18	546586	F
25:18	546754	V
25:19	546997	N
25:19	547184	N
25:20	547360	V
25:21	547561	N
25:21	547764	N
25:22	547973	F
25:22	548162	V
25:23	548384	N
25:23	548580	N
25:24	548785	N
25:24	548993	N
25:25	549196	N
25:26	549395	N
25:26	549581	N
25:27	549780	N
25:27	549996	F
25:28	550108	~
25:28	550210	N
25:28	550422	N
25:29	550626	N
25:29	550796	V
25:30	551010	N
25:31	551195	N
25:31	551387	F
25:32	551591	N
25:32	551790	N
25:33	552003	F
25:33	552166	V
25:34	552449	N
25:35	552660	N
25:35	552848	V
25:36	553057	N
25:36	553259	N
25:37	553459	F
25:38	553681	N
25:38	553875	N
25:39	554090	F
25:39	554293	V
25:40	554593	N
25:41	554795	V
25:41	555044	N
25:42	555256	N
25:42	555462	F
25:43	555668	N
25:44	555886	N
25:44	556082	V
25:45	556364	N
25:46	556585	N
25:46	556801	F
25:47	557026	N
25:47	557254	N
25:48	557460	V
25:49	557686	N
25:49	557882	N
25:50	558074	N
25:50	558241	V
25:51	558480	N
25:51	558705	N
25:52	558921	F
25:53	559130	N
25:53	559278	~
25:53	559329	N
25:54	559539	N
25:54	559755	N
25:55	559985	N
25:56	560202	N
25:56	560296	+
25:56	560390	V
25:57	560625	N
25:57	560867	N
25:58	561080	V
25:59	561347	N
25:59	561556	N
26:00	561777	V
26:01	562011	N
26:01	562244	N
26:02	562456	V
26:02	562677	N
26:03	562909	N
26:04	563119	V
26:05	563412	N
26:05	563644	N
26:06	563848	V
26:07	564126	N
26:07	564344	N
26:08	564538	V
26:08	564805	N
26:09	565055	N
26:10	565259	V
26:10	565536	N
26:11	565777	N
26:12	565978	V
26:12	566250	N
26:13	566482	N
26:14	566679	V
26:14	566939	N
26:15	567164	N
26:16	567372	V
26:16	567672	N
26:17	567898	N
26:18	568100	V
26:18	568372	N
26:19	568604	N
26:19	568795	V
26:20	569059	N
26:21	569307	N
26:21	569509	V
26:22	569805	N
26:23	570054	N
26:24	570261	V
26:24	570556	N
26:25	570782	N
26:26	570976	V
26:26	571252	N
26:27	571482	N
26:28	571691	V
26:28	571986	N
26:29	572228	N
26:30	572423	V
26:30	572694	N
26:31	572939	N
26:32	573131	V
26:32	573433	N
26:33	573651	V
26:34	573936	N
26:34	574187	N
26:35	574391	V
26:36	574666	N
26:36	574904	N
26:37	575096	V
26:38	575368	N
26:38	575595	N
26:39	575797	V
26:40	576092	N
26:40	576324	N
26:41	576532	V
26:42	576827	N
26:42	577058	N
26:43	577255	V
26:43	577437	V
26:44	577771	N
26:45	577970	V
26:46	578258	N
26:46	578495	N
26:47	578696	V
26:48	578969	N
26:48	579196	N
26:49	579391	V
26:50	579684	N
26:50	579917	N
26:51	580108	V
26:51	580293	V
26:52	580370	+
26:52	580448	N
26:53	580704	N
26:53	580946	N
26:54	581110	V
26:54	581298	V
26:55	581456	N
26:55	581700	N
26:56	581899	V
26:57	582179	N
26:57	582439	N
26:58	582645	V
26:59	582976	N
26:59	583192	V
27:00	583370	V
27:01	583720	N
27:01	583909	V
27:02	584193	N
27:03	584427	N
27:04	584645	V
27:04	584932	N
27:05	585185	N
27:06	585379	V
27:06	585681	N
27:07	585894	V
27:08	586089	V
27:09	586461	N
27:09	586653	V
27:10	586970	N
27:11	587212	F
27:11	587361	V
27:12	587718	N
27:13	587909	V
27:13	588178	N
27:14	588394	N
27:15	588609	V
27:15	588848	N
27:16	589102	N
27:16	589304	V
27:17	589638	N
27:18	589844	V
27:19	590133	N
27:19	590377	N
27:20	590547	V
27:20	590719	V
27:21	590878	N
27:22	591127	N
27:22	591343	V
27:23	591654	N
27:24	591893	N
27:24	592057	V
27:25	592239	V
27:25	592410	N
27:26	592655	N
27:26	592841	V
27:27	593152	N
27:28	593406	F
27:28	593552	V
27:29	593924	N
27:30	594024	+
27:30	594124	V
27:31	594400	N
27:31	594618	N
27:32	594814	V
27:32	595048	N
27:33	595272	N
27:34	595490	V
27:34	595780	N
27:35	596013	N
27:36	596212	V
27:36	596494	N
27:37	596738	N
27:38	596933	V
27:38	597201	N
27:39	597434	N
27:40	597644	V
27:40	597937	N
27:41	598172	N
27:42	598381	V
27:42	598640	N
27:43	598882	N
27:44	599075	V
27:44	599210	+
27:44	599346	N
27:45	599573	N
27:46	599796	F
27:46	600010	N
27:47	600232	N
27:47	600454	F
27:48	600684	N
27:49	600903	N
27:49	601121	F
27:50	601342	N
27:50	601556	N
27:51	601764	V
27:52	602084	N
27:53	602331	F
27:53	602483	V
27:54	602830	N
27:55	603028	V
27:55	603329	N
27:56	603549	V
27:56	603713	V
27:57	604045	N
27:58	604242	V
27:59	604557	N
27:59	604795	F
28:00	604950	V
28:01	605283	N
28:01	605469	V
28:02	605744	N
28:03	605969	N
28:03	606180	V
28:04	606408	V
28:05	606739	N
28:05	606926	V
28:06	607233	N
28:07	607452	V
28:07	607642	V
28:08	608015	N
28:09	608269	N
28:10	608527	N
28:11	608793	F
28:11	608946	V
28:12	609123	V
28:12	609301	N
28:13	609577	N
28:13	609772	V
28:14	610109	N
28:15	610313	V
28:16	610631	N
28:16	610853	V
28:17	611045	V
28:18	611430	N
28:18	611629	V
28:19	611825	V
28:20	612157	N
28:20	612343	V
28:21	612617	N
28:22	612859	N
28:22	613064	V
28:23	613353	N
28:24	613584	N
28:24	613758	V
28:25	613942	V
28:25	614107	N
28:26	614348	N
28:27	614531	V
28:27	614840	N
28:28	615064	V
28:29	615405	N
28:30	615620	V
28:30	615804	V
28:31	616182	N
28:32	616368	V
28:33	616702	N
28:33	616924	V
28:34	617197	N
28:35	617465	N
28:35	617667	V
28:36	617968	N
28:37	618201	N
28:37	618365	V
28:38	618540	V
28:38	618694	N
28:39	618922	N
28:39	619137	V
28:40	619474	N
28:41	619703	V
28:41	619864	V
28:42	620234	N
28:43	620428	V
28:44	620734	N
28:44	620953	F
28:45	621102	V
28:46	621463	N
28:46	621662	V
28:47	621964	N
28:48	622200	N
28:48	622389	V
28:49	622608	V
28:50	622900	N
28:50	623086	V
28:51	623381	N
28:52	623619	N
28:52	623797	V
28:53	623988	V
28:54	624356	N
28:54	624557	V
28:55	624716	V
28:56	625053	N
28:56	625234	V
28:57	625489	N
28:58	625736	N
28:58	625949	V
28:59	626218	N
29:00	626455	N
29:00	626652	V
29:01	626957	N
29:02	627165	V
29:02	627346	V
29:03	627695	N
29:04	627894	V
29:05	628206	N
29:05	628434	V
29:06	628611	V
29:07	628941	N
29:07	629130	V
29:08	629396	N
29:08	629603	N
29:09	629834	F
29:10	630057	V
29:11	630371	N
29:11	630583	V
29:12	630762	V
29:13	631125	N
29:13	631315	V
29:14	631629	N
29:15	631831	V
29:15	632022	V
29:16	632377	N
29:17	632580	V
29:17	632871	N
29:18	633093	N
29:19	633288	V
29:19	633474	V
29:20	633796	N
29:21	633977	V
29:21	634260	N
29:22	634496	N
29:23	634716	V
29:23	634937	V
29:24	635254	N
29:25	635449	V
29:25	635717	N
29:26	635942	N
29:27	636133	V
29:27	636335	V
29:28	636702	N
29:29	636900	V
29:29	637178	N
29:30	637417	N
29:31	637612	V
29:31	637829	V
29:32	638133	N
29:33	638319	V
29:33	638638	N
29:34	638860	V
29:35	639131	N
29:36	639368	N
29:36	639573	V
29:37	639848	N
29:37	640079	N
29:38	640277	V
29:39	640467	V
29:40	640836	N
29:40	641037	V
29:41	641327	N
29:42	641563	F
29:42	641732	V
29:43	641912	V
29:43	642070	N
29:44	642280	N
29:44	642490	F
29:44	642598	+
29:45	642707	V
29:46	642998	N
29:46	643240	N
29:47	643453	V
29:48	643731	N
29:48	643969	N
29:49	644169	V
29:50	644455	N
29:50	644680	N
29:51	644876	V
29:52	645152	N
29:52	645387	N
29:53	645611	V
29:53	645833	N
29:54	646067	N
29:55	646267	V
29:55	646539	N
29:56	646763	N
29:57	646967	V
29:57	647126	+
29:58	647285	N
29:58	647513	F
29:59	647681	V
30:00	648034	N
30:00	648223	V
30:01	648521	N
30:02	648735	F
30:02	648894	V
30:03	649206	N
30:03	649411	V
30:04	649704	N
30:05	649935	N
