0:00	189	N
0:01	425	N
0:01	659	N
0:02	889	N
0:03	1113	N
0:03	1336	N
0:04	1553	N
0:04	1773	N
0:05	1999	N
0:06	2236	N
0:06	2476	N
0:07	2705	N
0:08	2934	N
0:08	3164	N
0:09	3389	N
0:10	3618	N
0:10	3844	N
0:11	4060	N
0:11	4292	N
0:12	4528	N
0:13	4767	N
0:13	5009	N
0:14	5246	N
0:15	5479	N
0:15	5701	N
0:16	5927	N
0:17	6145	N
0:17	6375	N
0:18	6620	N
0:19	6864	N
0:19	7105	N
0:20	7340	N
0:21	7570	N
0:21	7802	N
0:22	8039	N
0:22	8261	N
0:23	8492	N
0:24	8726	N
0:24	8966	N
0:25	9203	N
0:26	9430	N
0:26	9666	N
0:27	9905	N
0:28	10137	N
0:28	10373	N
0:29	10599	N
0:30	10843	N
0:30	11099	N
0:31	11352	N
0:32	11594	N
0:32	11829	N
0:33	12066	N
0:34	12302	N
0:34	12528	N
0:35	12757	N
0:36	13005	N
0:36	13246	N
0:37	13487	N
0:38	13719	N
0:38	13952	N
0:39	14186	N
0:40	14412	N
0:40	14638	N
0:41	14848	N
0:41	15075	N
0:42	15316	N
0:43	15552	N
0:43	15780	N
0:44	16018	N
0:45	16246	N
0:45	16472	N
0:46	16690	N
0:46	16910	N
0:47	17145	N
0:48	17380	N
0:48	17617	N
0:49	17847	N
0:50	18075	N
0:50	18302	N
0:51	18522	N
0:52	18748	N
0:52	18973	N
0:53	19148	A
0:53	19404	N
0:54	19639	N
0:55	19873	N
0:55	20107	N
0:56	20334	N
0:57	20558	N
0:57	20780	N
0:58	20996	N
0:58	21211	N
0:59	21432	N
1:00	21666	N
1:00	21911	N
1:01	22158	N
1:02	22388	N
1:02	22617	N
1:03	22838	N
1:04	23064	N
1:04	23291	N
1:05	23502	N
1:05	23730	N
1:06	23958	N
1:07	24169	N
1:07	24417	N
1:08	24641	N
1:09	24871	N
1:09	25096	N
1:10	25313	N
1:10	25496	A
1:11	25736	N
1:12	25968	N
1:12	26207	N
1:13	26443	N
1:14	26671	N
1:14	26891	N
1:15	27116	N
1:15	27338	N
1:16	27553	N
1:17	27762	N
1:17	27985	N
1:18	28218	N
1:19	28451	N
1:19	28678	N
1:20	28902	N
1:20	29131	N
1:21	29357	N
1:22	29574	N
1:22	29784	N
1:23	29999	N
1:23	30223	N
1:24	30457	N
1:25	30691	N
1:25	30922	N
1:26	31154	N
1:27	31383	N
1:27	31611	N
1:28	31834	N
1:29	32057	N
1:29	32300	N
1:30	32545	N
1:31	32788	N
1:31	33028	N
1:32	33260	N
1:33	33493	N
1:33	33720	N
1:34	33920	N
1:34	34170	N
1:35	34389	N
1:36	34621	N
1:36	34856	N
1:37	35097	N
1:38	35332	N
1:38	35558	N
1:39	35782	N
1:40	36001	N
1:40	36170	A
1:41	36407	N
1:41	36641	N
1:42	36877	N
1:43	37116	N
1:43	37341	N
1:44	37572	N
1:44	37794	N
1:45	38016	N
1:46	38243	N
1:46	38461	N
1:47	38675	N
1:48	38897	N
1:48	39129	N
1:49	39364	N
1:49	39586	N
1:50	39811	N
1:51	40039	N
1:51	40258	N
1:52	40477	N
1:53	40684	N
1:53	40907	N
1:54	41142	N
1:54	41377	N
1:55	41610	N
1:56	41833	N
1:56	42057	N
1:57	42276	N
1:57	42451	A
1:58	42709	N
1:59	42931	N
1:59	43171	N
2:00	43415	N
2:01	43642	N
2:01	43887	N
2:02	44122	N
2:03	44357	N
2:03	44581	N
2:04	44803	N
2:05	45014	N
2:05	45238	N
2:06	45467	N
2:06	45702	N
2:07	45936	N
2:08	46165	N
2:08	46387	N
2:09	46607	N
2:10	46827	N
2:10	47050	N
2:11	47269	N
2:11	47498	N
2:12	47738	N
2:13	47968	N
2:13	48198	N
2:14	48427	N
2:15	48656	N
2:15	48883	N
2:16	49110	N
2:17	49324	N
2:17	49552	N
2:18	49781	N
2:18	50017	N
2:19	50258	N
2:20	50486	N
2:20	50715	N
2:21	50936	N
2:22	51161	N
2:22	51385	N
2:23	51597	N
2:23	51835	N
2:24	52080	N
2:25	52318	N
2:25	52553	N
2:26	52779	N
2:27	53006	N
2:27	53231	N
2:28	53410	A
2:29	53650	N
2:29	53870	N
2:30	54094	N
2:30	54184	|
2:30	54320	N
2:31	54547	N
2:32	54772	N
2:32	55000	N
2:33	55228	N
2:34	55447	N
2:34	55667	N
2:35	55876	N
2:35	56106	N
2:36	56218	|
2:36	56346	N
2:37	56577	N
2:37	56745	A
2:38	56985	N
2:38	57214	N
2:39	57435	N
2:40	57651	N
2:40	57863	N
2:41	58087	N
2:41	58317	N
2:42	58550	N
2:43	58782	N
2:43	59011	N
2:44	59237	N
2:45	59467	N
2:45	59689	N
2:46	59909	N
2:47	60120	N
2:47	60344	N
2:48	60580	N
2:48	60817	N
2:49	61055	N
2:50	61290	N
2:50	61515	N
2:51	61739	N
2:52	61962	N
2:52	62192	N
2:53	62422	N
2:54	62662	N
2:54	62907	N
2:55	63148	N
2:56	63384	N
2:56	63622	N
2:57	63860	N
2:58	64096	N
2:58	64330	N
2:59	64548	N
2:59	64782	N
3:00	65018	N
3:01	65256	N
3:01	65499	N
3:02	65728	N
3:03	65955	N
3:03	66174	N
3:04	66396	N
3:05	66613	N
3:05	66840	N
3:06	67080	N
3:07	67324	N
3:07	67554	N
3:08	67781	N
3:08	68010	N
3:09	68240	N
3:10	68469	N
3:10	68690	N
3:11	68908	N
3:12	69135	N
3:12	69367	N
3:13	69556	A
3:13	69816	N
3:14	70045	N
3:15	70277	N
3:15	70496	N
3:16	70712	N
3:17	70920	N
3:17	71147	N
3:18	71392	N
3:18	71635	N
3:19	71876	N
3:20	72104	N
3:20	72338	N
3:21	72569	N
3:22	72792	N
3:22	73021	N
3:23	73246	N
3:24	73478	N
3:24	73717	N
3:25	73949	N
3:26	74181	N
3:26	74413	N
3:27	74641	N
3:27	74870	N
3:28	75088	N
3:29	75298	N
3:29	75531	N
3:30	75767	N
3:31	76007	N
3:31	76250	N
3:32	76481	N
3:33	76716	N
3:33	76938	N
3:34	77163	N
3:34	77392	N
3:35	77612	N
3:36	77847	N
3:36	78078	N
3:37	78313	N
3:38	78546	N
3:38	78769	N
3:39	78993	N
3:40	79215	N
3:40	79426	N
3:41	79633	N
3:41	79848	N
3:42	80075	N
3:43	80305	N
3:43	80531	N
3:44	80747	N
3:44	80963	N
3:45	81175	N
3:46	81387	N
3:46	81602	N
3:47	81808	N
3:47	82030	N
3:48	82265	N
3:49	82492	N
3:49	82718	N
3:50	82932	N
3:50	83150	N
3:51	83369	N
3:52	83582	N
3:52	83793	N
3:53	83992	N
3:53	84213	N
3:54	84441	N
3:55	84663	N
3:55	84891	N
3:56	85112	N
3:57	85335	N
3:57	85547	N
3:58	85748	N
3:58	85970	N
3:59	86182	N
4:00	86413	N
4:00	86643	N
4:01	86875	N
4:01	87092	N
4:02	87309	N
4:03	87530	N
4:03	87744	N
4:04	87962	N
4:04	88180	N
4:05	88393	N
4:06	88618	N
4:06	88843	N
4:07	89069	N
4:08	89298	N
4:08	89436	~
4:08	89521	N
4:09	89736	N
4:09	89950	N
4:10	90162	N
4:11	90365	N
4:11	90577	N
4:12	90793	N
4:12	91018	N
4:13	91239	N
4:14	91451	N
4:14	91660	N
4:15	91867	N
4:15	92073	N
4:16	92278	N
4:16	92487	N
4:17	92683	N
4:18	92894	N
4:18	93045	A
4:19	93285	N
4:19	93502	N
4:20	93705	N
4:20	93785	~
4:20	93914	N
4:21	94118	N
4:22	94325	N
4:22	94525	N
4:23	94717	N
4:23	94916	N
4:24	95088	A
4:24	95331	N
4:25	95549	N
4:25	95753	N
4:26	95957	N
4:27	96121	A
4:27	96344	N
4:28	96540	N
4:28	96733	N
4:29	96925	N
4:29	97127	N
4:30	97339	N
4:30	97544	N
4:31	97752	N
4:32	97949	N
4:32	98147	N
4:33	98349	N
4:33	98552	N
4:34	98746	N
4:34	98940	N
4:35	99121	N
4:35	99324	N
4:36	99531	N
4:37	99737	N
4:37	99941	N
4:38	100142	N
4:38	100347	N
4:39	100542	N
4:39	100738	N
4:40	100927	N
4:40	101117	N
4:41	101306	N
4:41	101510	N
4:42	101711	N
4:43	101915	N
4:43	102112	N
4:44	102308	N
4:44	102500	N
4:45	102697	N
4:45	102885	N
4:46	103078	N
4:46	103269	N
4:47	103455	N
4:47	103651	N
4:48	103844	N
4:49	104050	N
4:49	104255	N
4:50	104457	N
4:50	104658	N
4:51	104853	N
4:51	105045	N
4:52	105233	N
4:52	105425	N
4:53	105611	N
4:53	105807	N
4:54	106011	N
4:55	106216	N
4:55	106425	N
4:56	106618	N
4:56	106815	N
4:57	107007	N
4:57	107198	N
4:58	107341	A
4:58	107546	N
4:59	107737	N
4:59	107942	N
5:00	108142	N
5:00	108342	N
5:01	108537	N
5:02	108741	N
5:02	108933	N
5:03	109131	N
5:03	109322	N
5:04	109514	N
5:04	109702	N
5:05	109881	N
5:05	110021	A
5:06	110231	N
5:06	110444	N
5:07	110657	N
5:07	110853	N
5:08	111045	N
5:08	111236	N
5:09	111428	N
5:10	111619	N
5:10	111807	N
5:11	111990	N
5:11	112185	N
5:12	112390	N
5:12	112541	A
5:13	112749	N
5:13	112954	N
5:14	113149	N
5:14	113347	N
5:15	113545	N
5:15	113736	N
5:16	113929	N
5:16	114112	N
5:17	114298	N
5:18	114495	N
5:18	114700	N
5:19	114901	N
5:19	115107	N
5:20	115305	N
5:20	115507	N
5:21	115704	N
5:21	115900	N
5:22	116090	N
5:23	116281	N
5:23	116484	N
5:24	116692	N
5:24	116902	N
5:25	117108	N
5:25	117317	N
5:26	117517	N
5:27	117722	N
5:27	117921	N
5:28	118090	A
5:28	118322	N
5:29	118516	N
5:29	118719	N
5:30	118927	N
5:30	119138	N
5:31	119351	N
5:32	119565	N
5:32	119770	N
5:33	119976	N
5:33	120168	N
5:34	120364	N
5:34	120565	N
5:35	120759	N
5:36	120969	N
5:36	121177	N
5:37	121392	N
5:37	121597	N
5:38	121796	N
5:38	121992	N
5:39	122188	N
5:39	122251	~
5:39	122332	A
5:40	122569	N
5:41	122761	N
5:41	122954	N
5:42	123150	N
5:42	123361	N
5:43	123568	N
5:43	123771	N
5:44	123972	N
5:44	124130	A
5:45	124365	N
5:46	124561	N
5:46	124756	N
5:47	124942	N
5:47	125086	A
5:48	125303	N
5:48	125518	N
5:49	125723	N
5:49	125928	N
5:50	126077	A
5:50	126284	N
5:51	126485	N
5:51	126683	N
5:52	126873	N
5:52	127067	N
5:53	127260	N
5:54	127467	N
5:54	127671	N
5:55	127845	N
5:55	128068	N
5:56	128268	N
5:56	128471	N
5:57	128670	N
5:57	128805	A
5:58	129033	N
5:58	129224	N
5:59	129409	N
6:00	129612	N
6:00	129814	N
6:01	130026	N
6:01	130235	N
6:02	130437	N
6:02	130594	A
6:03	130820	N
6:03	131014	N
6:04	131206	N
6:04	131397	N
6:05	131595	N
6:06	131797	N
6:06	132006	N
6:07	132203	N
6:07	132406	N
6:08	132600	N
6:08	132797	N
6:09	132957	A
6:09	133181	N
6:10	133379	N
6:11	133567	N
6:11	133762	N
6:12	133963	N
6:12	134170	N
6:13	134380	N
6:13	134579	N
6:14	134787	N
6:14	134991	N
6:15	135183	N
6:16	135378	N
6:16	135537	A
6:17	135752	N
6:17	135952	N
6:18	136160	N
6:18	136370	N
6:19	136576	N
6:19	136780	N
6:20	136977	N
6:21	137171	N
6:21	137366	N
6:22	137566	N
6:22	137758	N
6:23	137906	A
6:23	138129	N
6:24	138331	N
6:24	138535	N
6:25	138740	N
6:25	138888	A
6:26	139102	N
6:26	139306	N
6:27	139508	N
6:28	139699	N
6:28	139890	N
6:29	140069	N
6:29	140263	N
6:30	140459	N
6:30	140673	N
6:31	140872	N
6:31	141075	N
6:32	141262	N
6:32	141428	A
6:33	141643	N
6:33	141837	N
6:34	142030	N
6:34	142126	~
6:35	142217	N
6:35	142373	A
6:36	142608	N
6:36	142820	N
6:37	143024	N
6:37	143226	N
6:38	143428	N
6:38	143638	N
6:39	143835	N
6:40	144019	N
6:40	144225	N
6:41	144414	N
6:41	144615	N
6:42	144824	N
6:42	145031	N
6:43	145244	N
6:44	145456	N
6:44	145658	N
6:45	145860	N
6:45	146059	N
6:46	146260	N
6:46	146464	N
6:47	146666	N
6:47	146879	N
6:48	147104	N
6:49	147319	N
6:49	147537	N
6:50	147753	N
6:51	147966	N
6:51	148123	A
6:52	148380	N
6:52	148600	N
6:53	148804	N
6:53	149021	N
6:54	149238	N
6:55	149464	N
6:55	149692	N
6:56	149905	N
6:57	150122	N
6:57	150285	A
6:58	150528	N
6:58	150741	N
6:59	150940	N
6:59	151162	N
7:00	151387	N
7:01	151617	N
7:01	151724	+
7:01	151769	A
7:01	151902	A
7:02	152034	A
7:02	152165	A
7:03	152301	A
7:03	152435	A
7:03	152569	A
7:04	152703	A
7:04	152835	A
7:04	152967	A
7:05	153097	A
7:05	153229	A
7:06	153369	A
7:06	153510	A
7:06	153652	A
7:07	153797	A
7:07	153934	A
7:07	154072	A
7:08	154205	A
7:08	154347	+
7:08	154425	N
7:09	154644	N
7:10	154852	N
7:10	155054	N
7:11	155250	N
7:11	155466	N
7:12	155694	N
7:12	155853	A
7:13	155984	A
7:13	156201	N
7:14	156421	N
7:15	156638	N
7:15	156853	N
7:16	157073	N
7:16	157293	N
7:17	157513	N
7:18	157741	N
7:18	157981	N
7:19	158222	N
7:20	158458	N
7:20	158695	N
7:21	158923	N
7:22	159125	N
7:22	159368	N
7:23	159581	N
7:23	159815	N
7:24	160053	N
7:25	160291	N
7:25	160532	N
7:26	160755	N
7:27	160980	N
7:27	161204	N
7:28	161432	N
7:29	161657	N
7:29	161882	N
7:30	162118	N
7:30	162345	N
7:31	162595	N
7:32	162828	N
7:32	163063	N
7:33	163299	N
7:34	163534	N
7:34	163759	N
7:35	163980	N
7:36	164214	N
7:36	164462	N
7:37	164712	N
7:38	164950	N
7:38	165184	N
7:39	165415	N
7:40	165643	N
7:40	165870	N
7:41	166092	N
7:42	166330	N
7:42	166576	N
7:43	166816	N
7:44	167048	N
7:44	167278	N
7:45	167516	N
7:45	167706	A
7:46	167976	N
7:47	168196	N
7:47	168436	N
7:48	168677	N
7:49	168915	N
7:49	169157	N
7:50	169388	N
7:51	169616	N
7:51	169850	N
7:52	170076	N
7:53	170295	N
7:53	170531	N
7:54	170781	N
7:55	171027	N
7:55	171259	N
7:56	171488	N
7:57	171723	N
7:57	171948	N
7:58	172175	N
7:58	172404	N
7:59	172624	N
8:00	172861	N
8:00	173098	N
8:01	173340	N
8:02	173578	N
8:02	173812	N
8:03	173984	A
8:04	174247	N
8:04	174482	N
8:05	174699	N
8:05	174929	N
8:06	175169	N
8:07	175407	N
8:07	175643	N
8:08	175873	N
8:09	176099	N
8:09	176282	A
8:10	176545	N
8:11	176774	N
8:11	176999	N
8:12	177225	N
8:12	177465	N
8:13	177701	N
8:14	177928	N
8:14	178159	N
8:15	178387	N
8:16	178619	N
8:16	178845	N
8:17	179062	N
8:18	179299	N
8:18	179546	N
8:19	179792	N
8:20	180029	N
8:20	180257	N
8:21	180483	N
8:21	180704	N
8:22	180896	N
8:23	181136	N
8:23	181364	N
8:24	181598	N
8:25	181826	N
8:25	182054	N
8:26	182279	N
8:26	182515	N
8:27	182684	A
8:27	182825	A
8:28	183030	N
8:29	183300	N
8:29	183540	N
8:30	183781	N
8:31	184015	N
8:31	184252	N
8:32	184479	N
8:33	184704	N
8:33	184927	N
8:34	185144	N
8:34	185361	N
8:35	185555	A
8:36	185811	N
8:36	186050	N
8:37	186283	N
8:38	186513	N
8:38	186717	A
8:39	186970	N
8:40	187201	N
8:40	187430	N
8:41	187654	N
8:41	187833	A
8:42	188116	N
8:43	188353	N
8:43	188595	N
8:44	188829	N
8:45	189057	N
8:45	189280	N
8:46	189504	N
8:47	189726	N
8:47	189946	N
8:48	190182	N
8:48	190423	N
8:49	190664	N
8:50	190890	N
8:50	191117	N
8:51	191343	N
8:52	191570	N
8:52	191803	N
8:53	192027	N
8:54	192264	N
8:54	192503	N
8:55	192743	N
8:56	192983	N
8:56	193218	N
8:57	193452	N
8:58	193685	N
8:58	193913	N
8:59	194128	N
8:59	194358	N
9:00	194605	N
9:01	194849	N
9:01	195083	N
9:02	195315	N
9:03	195546	N
9:03	195753	N
9:04	195991	N
9:05	196216	N
9:05	196440	N
9:06	196676	N
9:06	196914	N
9:07	197150	N
9:08	197377	N
9:08	197609	N
9:09	197842	N
9:10	198067	N
9:10	198289	N
9:11	198503	N
9:12	198736	N
9:12	198952	A
9:13	199218	N
9:14	199460	N
9:14	199699	N
9:15	199932	N
9:15	200042	+
9:15	200081	A
9:16	200210	A
9:16	200350	A
9:16	200506	A
9:17	200704	A
9:17	200873	A
9:18	201014	A
9:18	201159	A
9:19	201299	A
9:19	201440	A
9:19	201582	A
9:20	201715	A
9:20	201855	A
9:21	201987	A
9:21	202125	A
9:21	202262	A
9:22	202397	A
9:22	202536	A
9:22	202672	A
9:23	202799	A
9:23	202936	A
9:24	203072	A
9:24	203209	A
9:24	203350	A
9:25	203492	A
9:25	203633	A
9:26	203778	A
9:26	203914	A
9:26	204053	A
9:27	204190	A
9:27	204320	A
9:27	204452	A
9:28	204583	A
9:28	204711	A
9:29	204841	A
9:29	204962	A
9:29	205097	A
9:30	205235	A
9:30	205375	A
9:30	205519	A
9:31	205659	A
9:31	205797	A
9:32	205936	A
9:32	206068	A
9:32	206200	A
9:33	206334	A
9:33	206468	A
9:33	206602	A
9:34	206735	A
9:34	206865	A
9:34	206995	A
9:35	207123	A
9:35	207256	A
9:36	207395	A
9:36	207536	A
9:36	207674	A
9:37	207816	A
9:37	207949	A
9:38	208086	A
9:38	208222	A
9:38	208358	A
9:39	208497	A
9:39	208630	A
9:39	208763	A
9:40	208896	A
9:40	209031	A
9:40	209159	A
9:41	209285	A
9:41	209420	A
9:42	209561	A
9:42	209705	A
9:42	209844	A
9:43	209990	A
9:43	210180	A
9:44	210347	+
9:44	210399	N
9:45	210612	N
9:45	210831	N
9:46	211041	N
9:46	211261	N
9:47	211484	N
9:48	211722	N
9:48	211968	N
9:49	212214	N
9:50	212462	N
9:50	212712	N
9:51	212949	N
9:52	213186	N
9:52	213413	N
9:53	213629	N
9:53	213802	A
9:54	214084	N
9:55	214328	N
9:56	214567	N
9:56	214790	N
9:57	215016	N
9:57	215235	N
9:58	215455	N
9:59	215675	N
9:59	215793	+
9:59	215830	A
9:59	215964	A
10:00	216106	A
10:00	216244	A
10:01	216379	A
10:01	216519	A
10:01	216658	A
10:02	216796	A
10:02	216934	A
10:02	217072	A
10:03	217212	A
10:03	217349	A
10:04	217486	A
10:04	217626	A
10:04	217760	A
10:05	217890	A
10:05	218028	A
10:06	218167	A
10:06	218307	A
10:06	218448	A
10:07	218584	A
10:07	218726	A
10:07	218863	A
10:08	218995	A
10:08	219135	A
10:09	219269	A
10:09	219405	A
10:09	219538	A
10:10	219668	A
10:10	219801	A
10:10	219930	A
10:11	220051	A
10:11	220186	A
10:12	220323	A
10:12	220462	A
10:12	220606	A
10:13	220744	A
10:13	220883	A
10:13	221024	A
10:14	221153	A
10:14	221282	A
10:15	221413	A
10:15	221545	A
10:15	221679	A
10:16	221812	A
10:16	221941	A
10:16	222071	A
10:17	222193	A
10:17	222321	A
10:17	222463	A
10:18	222597	A
10:18	222735	A
10:19	222878	A
10:19	223013	A
10:19	223152	A
10:20	223290	A
10:20	223428	A
10:21	223570	A
10:21	223746	N
10:21	223855	+
10:22	223942	N
10:22	224137	N
10:23	224324	N
10:23	224524	N
10:24	224743	N
10:24	224971	N
10:25	225215	N
10:26	225454	N
10:26	225700	N
10:27	225954	N
10:28	226201	N
10:29	226446	N
10:29	226693	N
10:30	226943	N
10:31	227194	N
10:31	227441	N
10:32	227685	N
10:33	227923	N
10:33	228150	N
10:34	228370	N
10:34	228596	N
10:35	228814	N
10:36	229045	N
10:36	229283	N
10:37	229457	A
10:38	229737	N
10:38	229964	N
10:39	230187	N
10:40	230405	N
10:40	230624	N
10:41	230839	N
10:41	231065	N
10:42	231299	N
10:43	231525	N
10:43	231751	N
10:44	231979	N
10:44	232198	N
10:45	232423	N
10:46	232606	A
10:46	232856	N
10:47	233070	N
10:48	233292	N
10:48	233525	N
10:49	233740	N
10:49	233991	N
10:50	234212	N
10:51	234431	N
10:51	234648	N
10:52	234817	A
10:52	235061	N
10:53	235282	N
10:54	235520	N
10:54	235761	N
10:55	235994	N
10:56	236222	N
10:56	236444	N
10:57	236670	N
10:58	236894	N
10:58	237112	N
10:59	237325	N
10:59	237548	N
11:00	237782	N
11:01	237997	N
11:01	238247	N
11:02	238474	N
11:03	238707	N
11:03	238925	N
11:04	239108	A
11:04	239355	N
11:05	239573	N
11:06	239808	N
11:06	240039	N
11:07	240232	A
11:08	240490	N
11:08	240712	N
11:09	240941	N
11:09	241162	N
11:10	241385	N
11:11	241599	N
11:11	241812	N
11:12	242038	N
11:12	242259	N
11:13	242482	N
11:14	242705	N
11:14	242927	N
11:15	243141	N
11:15	243354	N
11:16	243567	N
11:17	243773	N
11:17	243992	N
11:18	244217	N
11:19	244448	N
11:19	244684	N
11:20	244907	N
11:20	245128	N
11:21	245344	N
11:22	245566	N
11:22	245791	N
11:23	246002	N
11:23	246229	N
11:24	246441	N
11:25	246687	N
11:25	246918	N
11:26	247137	N
11:27	247363	N
11:27	247586	N
11:28	247802	N
11:28	248020	N
11:29	248229	N
11:30	248457	N
11:30	248694	N
11:31	248930	N
11:32	249160	N
11:32	249377	N
11:33	249597	N
11:33	249820	N
11:34	250035	N
11:35	250247	N
11:35	250469	N
11:36	250703	N
11:37	250933	N
11:37	251158	N
11:38	251380	N
11:38	251608	N
11:39	251836	N
11:40	252052	N
11:40	252271	N
11:41	252482	N
11:41	252697	N
11:42	252940	N
11:43	253171	N
11:43	253406	N
11:44	253633	N
11:45	253856	N
11:45	254077	N
11:46	254290	N
11:46	254509	N
11:47	254687	A
11:48	254949	N
11:48	255188	N
11:49	255413	N
11:50	255638	N
11:50	255828	A
11:51	256073	N
11:51	256296	N
11:52	256517	N
11:53	256731	N
11:53	256896	A
11:54	257152	N
11:54	257390	N
11:55	257629	N
11:56	257861	N
11:56	258083	N
11:57	258308	N
11:58	258525	N
11:58	258742	N
11:59	258955	N
11:59	259181	N
12:00	259417	N
12:01	259652	N
12:01	259881	N
12:02	260106	N
12:03	260330	N
12:03	260554	N
12:04	260784	N
12:05	261006	N
12:05	261225	N
12:06	261455	N
12:06	261694	N
12:07	261933	N
12:08	262160	N
12:08	262389	N
12:09	262620	N
12:10	262845	N
12:10	263046	N
12:11	263279	N
12:11	263514	N
12:12	263755	N
12:13	263994	N
12:13	264111	+
12:13	264161	A
12:14	264307	A
12:14	264502	A
12:15	264672	A
12:15	264806	A
12:15	264945	A
12:16	265076	A
12:16	265211	A
12:17	265344	A
12:17	265473	A
12:17	265615	A
12:18	265758	A
12:18	265900	A
12:19	266045	A
12:19	266188	A
12:19	266328	A
12:20	266467	A
12:20	266606	A
12:20	266747	A
12:21	266891	A
12:21	267025	A
12:22	267158	A
12:22	267292	A
12:22	267423	A
12:23	267547	A
12:23	267680	A
12:23	267817	A
12:24	267956	A
12:24	268092	A
12:25	268229	A
12:25	268371	A
12:25	268508	A
12:26	268644	A
12:26	268780	A
12:26	268911	A
12:27	269043	A
12:27	269174	A
12:28	269302	A
12:28	269432	A
12:28	269558	A
12:29	269683	+
12:29	269758	N
12:29	269970	N
12:30	270181	N
12:31	270387	N
12:31	270588	N
12:32	270788	N
12:32	270875	~
12:32	270989	N
12:33	271185	N
12:33	271385	N
12:34	271583	N
12:34	271791	N
12:35	271916	A
12:36	272187	N
12:36	272412	N
12:37	272650	N
12:38	272889	N
12:38	273112	N
12:39	273338	N
12:39	273552	N
12:40	273769	N
12:41	273985	N
12:41	274191	N
12:42	274421	N
12:42	274650	N
12:43	274876	N
12:44	275093	N
12:44	275306	N
12:45	275515	N
12:45	275709	N
12:46	275936	N
12:47	276143	N
12:47	276346	N
12:48	276553	N
12:48	276767	N
12:49	276986	N
12:49	277199	N
12:50	277408	N
12:51	277617	N
12:51	277829	N
12:52	278030	N
12:52	278231	N
12:53	278424	N
12:53	278638	N
12:54	278863	N
12:55	279079	N
12:55	279232	A
12:56	279480	N
12:56	279693	N
12:57	279900	N
12:58	280111	N
12:58	280272	A
12:59	280502	N
12:59	280726	N
13:00	280961	N
13:00	281035	~
13:01	281202	N
13:01	281437	N
13:02	281669	N
13:03	281910	N
13:03	282126	V
13:04	282364	N
13:04	282588	N
13:05	282807	N
13:06	283042	N
13:06	283274	N
13:07	283507	N
13:08	283741	N
13:08	283969	N
13:09	284196	N
13:10	284415	N
13:10	284640	N
13:11	284859	N
13:11	285014	A
13:12	285226	N
13:12	285337	+
13:12	285400	A
13:13	285547	A
13:13	285693	A
13:13	285835	A
13:14	285972	A
13:14	286111	A
13:15	286249	A
13:15	286391	A
13:15	286525	A
13:16	286660	A
13:16	286794	A
13:17	286922	A
13:17	287048	A
13:17	287182	A
13:18	287317	A
13:18	287458	A
13:18	287599	A
13:19	287744	A
13:19	287893	A
13:20	288034	A
13:20	288167	A
13:20	288305	A
13:21	288430	A
13:21	288557	A
13:21	288688	A
13:22	288832	+
13:22	288899	N
13:23	289140	N
13:23	289353	N
13:24	289571	N
13:24	289793	N
13:25	289999	N
13:26	290219	N
13:26	290428	N
13:27	290646	N
13:27	290871	N
13:28	290978	~
13:28	291042	A
13:29	291303	N
13:29	291397	|
13:29	291525	N
13:30	291762	N
13:30	291841	|
13:31	291999	N
13:31	292076	|
13:31	292228	N
13:32	292458	N
13:33	292689	N
13:33	292912	N
13:34	293122	N
13:34	293353	N
13:35	293571	N
13:36	293807	N
13:36	294044	N
13:37	294222	A
13:38	294495	N
13:38	294727	N
13:39	294955	N
13:39	295170	N
13:40	295394	N
13:41	295609	N
13:41	295837	N
13:42	296066	N
13:42	296214	~
13:43	296295	N
13:43	296525	N
13:44	296755	N
13:44	296982	N
13:45	297202	N
13:46	297424	N
13:46	297646	N
13:47	297858	N
13:48	298089	N
13:48	298327	N
13:49	298568	N
13:50	298807	N
13:50	299032	N
13:51	299262	N
13:51	299483	N
13:52	299709	N
13:53	299935	N
13:53	300163	N
13:54	300401	N
13:55	300638	N
13:55	300877	N
13:56	301109	N
13:57	301341	N
13:57	301570	N
13:58	301779	N
13:58	302026	N
13:59	302248	N
14:00	302487	N
14:00	302735	N
14:01	302980	N
14:02	303215	N
14:02	303447	N
14:03	303678	N
14:04	303887	A
14:04	304147	N
14:05	304375	N
14:06	304611	N
14:06	304852	N
14:07	305083	N
14:07	305156	~
14:08	305312	N
14:08	305530	N
14:09	305759	N
14:09	305991	N
14:10	306213	N
14:11	306427	N
14:11	306652	N
14:12	306883	N
14:13	307104	N
14:13	307347	N
14:14	307577	N
14:15	307810	N
14:15	308031	N
14:16	308206	A
14:16	308458	N
14:17	308675	N
14:18	308907	N
14:18	309140	N
14:19	309371	N
14:19	309593	N
14:20	309711	~
14:20	309810	N
14:21	310033	N
14:21	310250	N
14:22	310402	A
14:22	310606	N
14:23	310721	+
14:23	310766	A
14:23	310902	A
14:24	311040	A
14:24	311181	A
14:24	311319	A
14:25	311455	A
14:25	311594	A
14:25	311737	A
14:26	311877	A
14:26	312019	A
14:27	312153	A
14:27	312293	A
14:27	312430	A
14:28	312562	A
14:28	312753	N
14:29	312955	+
14:29	313003	N
14:30	313224	N
14:30	313451	N
14:31	313674	N
14:31	313895	N
14:32	314100	N
14:33	314311	N
14:33	314517	N
14:34	314725	N
14:34	314937	N
14:35	315140	N
14:36	315360	N
14:36	315581	N
14:36	315664	|
14:37	315808	N
14:37	316030	N
14:38	316248	N
14:39	316468	N
14:39	316685	N
14:40	316904	N
14:40	317099	N
14:41	317317	N
14:42	317533	N
14:42	317762	N
14:43	317985	N
14:43	318223	N
14:44	318446	N
14:45	318664	N
14:45	318884	N
14:46	319087	N
14:46	319318	N
14:47	319535	N
14:48	319765	N
14:48	319993	N
14:49	320171	A
14:50	320433	N
14:50	320654	N
14:51	320879	N
14:51	321063	N
14:52	321311	N
14:53	321524	N
14:53	321735	N
14:54	321959	N
14:54	322192	N
14:55	322419	N
14:56	322644	N
14:56	322871	N
14:57	323088	N
14:58	323305	N
14:58	323519	N
14:59	323731	N
14:59	323942	N
15:00	324183	N
15:01	324416	N
15:01	324638	N
15:02	324857	N
15:02	325053	N
15:03	325286	N
15:04	325505	N
15:04	325716	N
15:05	325920	N
15:05	326134	N
15:06	326357	N
15:07	326575	N
15:07	326795	N
15:08	327015	N
15:08	327226	N
15:09	327438	N
15:10	327641	N
15:10	327851	N
15:11	328055	N
15:11	328268	N
15:12	328495	N
15:13	328727	N
15:13	328957	N
15:14	329180	N
15:15	329401	N
15:15	329619	N
15:16	329848	N
15:16	330075	N
15:17	330288	N
15:18	330520	N
15:18	330706	A
15:19	330980	N
15:20	331219	N
15:20	331454	N
15:21	331682	N
15:21	331908	N
15:22	332129	N
15:23	332344	N
15:23	332566	N
15:24	332746	A
15:25	333031	N
15:25	333267	N
15:26	333493	N
15:26	333713	N
15:27	333935	N
15:28	334157	N
15:28	334372	N
15:29	334585	N
15:30	334800	N
15:30	335045	N
15:31	335274	N
15:31	335502	N
15:32	335725	N
15:33	335955	N
15:33	336180	N
15:34	336405	N
15:35	336623	N
15:35	336840	N
15:36	337080	N
15:36	337317	N
15:37	337555	N
15:38	337785	N
15:38	338013	N
15:39	338238	N
15:40	338452	N
15:40	338626	A
15:41	338870	N
15:41	339103	N
15:42	339339	N
15:43	339570	N
15:43	339801	N
15:44	340025	N
15:45	340249	N
15:45	340471	N
15:46	340694	N
15:46	340916	N
15:47	341125	N
15:48	341351	N
15:48	341584	N
15:49	341823	N
15:50	342063	N
15:50	342289	N
15:51	342503	N
15:52	342741	N
15:52	342964	N
15:53	343183	N
15:53	343414	N
15:54	343600	A
15:55	343896	N
15:55	344141	N
15:56	344379	N
15:57	344609	N
15:57	344844	N
15:58	345084	N
15:59	345309	N
15:59	345540	N
16:00	345779	N
16:01	346019	N
16:01	346256	N
16:02	346459	N
16:03	346704	N
16:03	346934	N
16:04	347156	N
16:04	347384	N
16:05	347532	A
16:06	347806	N
16:06	348064	N
16:07	348306	N
16:08	348491	A
16:08	348743	N
16:09	348977	N
16:10	349210	N
16:10	349432	N
16:11	349649	N
16:11	349886	N
16:12	350126	N
16:13	350373	N
16:13	350612	N
16:14	350849	N
16:15	351093	N
16:15	351291	N
16:16	351551	N
16:17	351775	N
16:17	352006	N
16:18	352247	N
16:19	352489	N
16:19	352732	N
16:20	352974	N
16:21	353208	N
16:21	353441	N
16:22	353667	N
16:23	353892	N
16:23	354118	N
16:24	354352	N
16:24	354590	N
16:25	354820	N
16:26	355049	N
16:26	355276	N
16:27	355493	N
16:28	355685	A
16:28	355935	N
16:29	356150	N
16:29	356382	N
16:30	356619	N
16:31	356865	N
16:31	357113	N
16:32	357344	N
16:33	357582	N
16:33	357811	N
16:34	358043	N
16:35	358270	N
16:35	358498	N
16:36	358756	N
16:37	359011	N
16:37	359256	N
16:38	359463	A
16:39	359724	N
16:39	359966	N
16:40	360209	N
16:41	360432	N
16:41	360609	A
16:42	360879	N
16:43	361130	N
16:43	361369	N
16:44	361600	N
16:45	361834	N
16:45	362064	N
16:46	362285	N
16:46	362505	N
16:47	362722	N
16:48	362958	N
16:48	363200	N
16:49	363434	N
16:50	363669	N
16:50	363894	N
16:51	364119	N
16:52	364347	N
16:52	364575	N
16:53	364794	N
16:53	365031	N
16:54	365270	N
16:55	365513	N
16:55	365754	N
16:56	365995	N
16:57	366236	N
16:57	366467	N
16:58	366688	N
16:59	366883	A
16:59	367131	N
17:00	367366	N
17:01	367609	N
17:01	367847	N
17:02	368046	A
17:03	368300	N
17:03	368527	N
17:04	368752	N
17:04	368980	N
17:05	369187	N
17:06	369430	N
17:06	369667	N
17:07	369904	N
17:08	370135	N
17:08	370361	N
17:09	370592	N
17:10	370814	N
17:10	371037	N
17:11	371247	N
17:11	371467	N
17:12	371694	N
17:13	371932	N
17:13	372171	N
17:14	372397	N
17:15	372621	N
17:15	372842	N
17:16	373061	N
17:16	373282	N
17:17	373496	N
17:18	373728	N
17:18	373805	~
17:18	373967	N
17:19	374196	N
17:20	374425	N
17:20	374643	N
17:21	374867	N
17:21	375089	N
17:22	375303	N
17:23	375520	N
17:23	375725	N
17:24	375949	N
17:24	376181	N
17:25	376410	N
17:26	376642	N
17:26	376865	N
17:27	377087	N
17:28	377309	N
17:28	377523	N
17:29	377742	N
17:29	377974	N
17:30	378212	N
17:31	378450	N
17:31	378678	N
17:32	378904	N
17:33	379129	N
17:33	379352	N
17:34	379577	N
17:34	379777	A
17:35	380012	N
17:36	380244	N
17:36	380478	N
17:37	380709	N
17:38	380936	N
17:38	381171	N
17:39	381400	N
17:40	381626	N
17:40	381844	N
17:41	382057	N
17:41	382286	N
17:42	382519	N
17:43	382754	N
17:43	382990	N
17:44	383210	N
17:45	383432	N
17:45	383645	N
17:46	383866	N
17:46	384089	N
17:47	384298	N
17:48	384522	N
17:48	384748	N
17:49	384978	N
17:50	385208	N
17:50	385427	N
17:51	385655	N
17:51	385880	N
17:52	386047	A
17:53	386288	N
17:53	386505	N
17:54	386735	N
17:54	386973	N
17:55	387211	N
17:56	387442	N
17:56	387666	N
17:57	387889	N
17:58	388109	N
17:58	388330	N
17:59	388545	N
17:59	388774	N
18:00	389015	N
18:01	389250	N
18:01	389483	N
18:02	389708	N
18:03	389937	N
18:03	390164	N
18:04	390381	N
18:05	390600	N
18:05	390810	N
18:06	391034	N
18:06	391266	N
18:07	391494	N
18:08	391728	N
18:08	391955	N
18:09	392176	N
18:09	392388	N
18:10	392611	N
18:11	392824	N
18:11	393076	N
18:12	393321	N
18:13	393561	N
18:13	393788	N
18:14	394011	N
18:15	394243	N
18:15	394466	N
18:16	394689	N
18:16	394910	N
18:17	395124	N
18:18	395325	N
18:18	395572	N
18:19	395804	N
18:20	396036	N
18:20	396258	N
18:21	396418	A
18:21	396567	~
18:21	396673	N
18:22	396893	N
18:23	397106	N
18:23	397320	N
18:24	397546	N
18:24	397782	N
18:25	398017	N
18:26	398241	N
18:26	398465	N
18:27	398683	N
18:28	398903	N
18:28	399125	N
18:29	399336	N
18:29	399561	N
18:30	399786	N
18:31	400021	N
18:31	400258	N
18:32	400481	N
18:33	400713	N
18:33	400942	N
18:34	401169	N
18:34	401391	N
18:35	401604	N
18:36	401837	N
18:36	402080	N
18:37	402319	N
18:38	402553	N
18:38	402775	N
18:39	402954	A
18:40	403213	N
18:40	403437	N
18:41	403655	N
18:41	403856	N
18:42	404113	N
18:43	404350	N
18:43	404585	N
18:44	404813	N
18:45	405016	N
18:45	405277	N
18:46	405502	N
18:47	405722	N
18:47	405938	N
18:48	406169	N
18:48	406404	N
18:49	406637	N
18:50	406867	N
18:50	407074	N
18:51	407313	N
18:52	407532	N
18:52	407751	N
18:53	407967	N
18:53	408195	N
18:54	408426	N
18:55	408663	N
18:55	408894	N
18:56	409118	N
18:57	409349	N
18:57	409577	N
18:58	409804	N
18:58	410032	N
18:59	410235	A
19:00	410482	N
19:00	410715	N
19:01	410954	N
19:02	411195	N
19:02	411420	N
19:03	411647	N
19:04	411870	N
19:04	412093	N
19:05	412309	N
19:05	412536	N
19:06	412777	N
19:07	413021	N
19:07	413254	N
19:08	413481	N
19:09	413709	N
19:09	413939	N
19:10	414113	A
19:11	414368	N
19:11	414593	N
19:12	414821	N
19:12	415052	N
19:13	415289	N
19:14	415520	N
19:14	415747	N
19:15	415974	N
19:16	416193	N
19:16	416359	A
19:17	416607	N
19:17	416838	N
19:18	417079	N
19:19	417315	N
19:19	417548	N
19:20	417768	N
19:21	417996	N
19:21	418221	N
19:22	418439	N
19:22	418663	N
19:23	418887	N
19:24	419119	N
19:24	419357	N
19:25	419594	N
19:26	419831	N
19:26	420067	N
19:27	420295	N
19:28	420525	N
19:28	420744	N
19:29	420960	N
19:29	421192	N
19:30	421427	N
19:31	421669	N
19:31	421907	N
19:32	422134	N
19:33	422364	N
19:33	422583	N
19:34	422806	N
19:34	422974	A
19:35	423229	N
19:36	423465	N
19:36	423698	N
19:37	423935	N
19:38	424169	N
19:38	424394	N
19:39	424626	N
19:40	424840	N
19:40	425079	N
19:41	425294	N
19:42	425521	N
19:42	425698	A
19:43	425971	N
19:43	426220	N
19:44	426451	N
19:45	426677	N
19:45	426900	N
19:46	427121	N
19:47	427343	N
19:47	427565	N
19:48	427784	N
19:48	428039	N
19:49	428276	N
19:50	428507	N
19:50	428700	A
19:51	428960	N
19:52	429193	N
19:52	429414	N
19:53	429627	N
19:54	429855	N
19:54	430086	N
19:55	430320	N
19:55	430554	N
19:56	430781	N
19:57	431013	N
19:57	431232	N
19:58	431455	N
19:59	431672	N
19:59	431889	N
20:00	432127	N
20:01	432363	N
20:01	432602	N
20:02	432776	A
20:02	433026	N
20:03	433262	N
20:04	433484	N
20:04	433710	N
20:05	433930	N
20:06	434160	N
20:06	434396	N
20:07	434625	N
20:07	434864	N
20:08	435098	N
20:09	435326	N
20:09	435550	N
20:10	435756	N
20:11	435990	N
20:11	436209	N
20:12	436440	N
20:12	436654	A
20:13	436917	N
20:14	437150	N
20:14	437384	N
20:15	437610	N
20:16	437836	N
20:16	438063	N
20:17	438282	N
20:18	438516	N
20:18	438748	N
20:19	438971	N
20:20	439224	N
20:20	439449	N
20:21	439602	~
20:21	439682	N
20:21	439911	N
20:22	440141	N
20:23	440361	N
20:23	440583	N
20:24	440820	N
20:25	441006	A
20:25	441286	N
20:26	441519	N
20:27	441745	N
20:27	441967	N
20:28	442187	N
20:28	442403	N
20:29	442621	N
20:30	442851	N
20:30	443029	A
20:31	443302	N
20:32	443540	N
20:32	443764	N
20:33	443992	N
20:33	444222	N
20:34	444443	N
20:35	444661	N
20:35	444873	N
20:36	445102	N
20:37	445341	N
20:37	445571	N
20:38	445795	N
20:38	446031	N
20:39	446249	N
20:40	446467	N
20:40	446680	N
20:41	446893	N
20:42	447125	N
20:42	447353	N
20:43	447589	N
20:43	447816	N
20:44	448040	N
20:45	448269	N
20:45	448489	N
20:46	448680	N
20:47	448930	N
20:47	449144	N
20:48	449374	N
20:48	449558	~
20:48	449605	N
20:49	449836	N
20:50	450070	N
20:50	450296	N
20:51	450520	N
20:52	450735	N
20:52	450953	N
20:53	451164	N
20:53	451383	N
20:54	451614	N
20:55	451849	N
20:55	452082	N
20:56	452307	N
20:57	452529	N
20:57	452749	N
20:58	452974	N
20:58	453197	N
20:59	453408	N
21:00	453600	N
21:00	453857	N
21:01	454087	N
21:01	454319	N
21:02	454544	N
21:03	454771	N
21:03	454996	N
21:04	455215	N
21:05	455434	N
21:05	455647	N
21:06	455878	N
21:06	456119	N
21:07	456353	N
21:08	456584	N
21:08	456805	N
21:09	457030	N
21:10	457250	N
21:10	457476	N
21:11	457690	N
21:12	457923	N
21:12	458156	N
21:13	458389	N
21:13	458618	N
21:14	458847	N
21:15	459081	N
21:15	459300	N
21:16	459521	N
21:17	459736	N
21:17	459947	N
21:18	460179	N
21:18	460407	N
21:19	460640	N
21:20	460871	N
21:20	461026	A
21:21	461260	N
21:21	461482	N
21:22	461696	N
21:23	461913	N
21:23	462129	N
21:24	462354	N
21:24	462583	N
21:25	462811	N
21:26	463039	N
21:26	463266	N
21:27	463491	N
21:28	463716	N
21:28	463944	N
21:29	464157	N
21:29	464387	N
21:30	464620	N
21:31	464865	N
21:31	465061	A
21:32	465328	N
21:33	465566	N
21:33	465789	N
21:34	466011	N
21:35	466237	N
21:35	466453	N
21:36	466689	N
21:37	466931	N
21:37	467146	N
21:38	467393	N
21:38	467615	N
21:39	467840	N
21:40	468067	N
21:40	468288	N
21:41	468506	N
21:42	468733	N
21:42	468972	N
21:43	469217	N
21:44	469450	N
21:44	469626	A
21:45	469904	N
21:45	470133	N
21:46	470359	N
21:47	470578	N
21:47	470800	N
21:48	471040	N
21:49	471277	N
21:49	471516	N
21:50	471740	N
21:51	471965	N
21:51	472195	N
21:52	472417	N
21:52	472644	N
21:53	472865	N
21:54	473100	N
21:54	473344	N
21:55	473579	N
21:56	473818	N
21:56	474058	N
21:57	474256	A
21:58	474508	N
21:58	474732	N
21:59	474951	N
21:59	475184	N
22:00	475417	N
22:01	475660	N
22:01	475904	N
22:02	476133	N
22:03	476364	N
22:03	476589	N
22:04	476814	N
22:05	477043	N
22:05	477263	N
22:06	477489	N
22:07	477727	N
22:07	477960	N
22:08	478193	N
22:08	478418	N
22:09	478613	N
22:10	478867	N
22:10	479095	N
22:11	479312	N
22:11	479483	A
22:12	479758	N
22:13	480006	N
22:14	480247	N
22:14	480472	N
22:15	480700	N
22:15	480924	N
22:16	481147	N
22:17	481366	N
22:17	481586	N
22:18	481821	N
22:19	482058	N
22:19	482289	N
22:20	482517	N
22:20	482743	N
22:21	482971	N
22:22	483198	N
22:22	483421	N
22:23	483636	N
22:24	483863	N
22:24	484102	N
22:25	484343	N
22:26	484583	N
22:26	484815	N
22:27	485053	N
22:28	485284	N
22:28	485510	N
22:29	485724	N
22:29	485960	N
22:30	486204	N
22:31	486442	N
22:31	486681	N
22:32	486909	N
22:33	487139	N
22:33	487365	N
22:34	487589	N
22:35	487820	N
22:35	488044	N
22:36	488278	N
22:36	488519	N
22:37	488759	N
22:38	488999	N
22:38	489236	N
22:39	489468	N
22:40	489692	N
22:40	489916	N
22:41	490134	N
22:42	490364	N
22:42	490607	N
22:43	490848	N
22:44	491089	N
22:44	491320	N
22:45	491546	N
22:45	491752	N
22:46	492010	N
22:47	492233	N
22:47	492466	N
22:48	492704	N
22:49	492944	N
22:49	493183	N
22:50	493410	N
22:51	493648	N
22:51	493880	N
22:52	494101	N
22:53	494326	N
22:53	494542	N
22:54	494776	N
22:55	495022	N
22:55	495264	N
22:56	495497	N
22:57	495721	N
22:57	495949	N
22:58	496180	N
22:58	496400	N
22:59	496617	N
23:00	496856	N
23:00	497094	N
23:01	497329	N
23:02	497560	N
23:02	497787	N
23:03	498019	N
23:04	498243	N
23:04	498466	N
23:05	498678	N
23:05	498898	N
23:06	499132	N
23:07	499366	N
23:07	499604	N
23:08	499838	N
23:09	500062	N
23:09	500289	N
23:10	500509	N
23:10	500732	N
23:11	500951	N
23:12	501183	N
23:12	501418	N
23:13	501649	N
23:14	501882	N
23:14	502109	N
23:15	502290	A
23:15	502549	N
23:16	502776	N
23:17	502993	N
23:17	503211	N
23:18	503386	A
23:19	503648	N
23:19	503894	N
23:20	504131	N
23:20	504359	N
23:21	504586	N
23:22	504811	N
23:22	505033	N
23:23	505248	N
23:24	505483	N
23:24	505722	N
23:25	505962	N
23:26	506200	N
23:26	506377	A
23:27	506635	N
23:27	506872	N
23:28	507106	N
23:29	507326	N
23:29	507498	A
23:30	507753	N
23:31	507995	N
23:31	508234	N
23:32	508407	A
23:32	508665	N
23:33	508906	N
23:34	509131	N
23:34	509353	N
23:35	509569	N
23:36	509805	N
23:36	510050	N
23:37	510287	N
23:38	510526	N
23:38	510751	N
23:39	510974	N
23:40	511200	N
23:40	511424	N
23:41	511643	N
23:41	511871	N
23:42	512105	N
23:43	512346	N
23:43	512578	N
23:44	512807	N
23:45	513039	N
23:45	513261	N
23:46	513486	N
23:46	513704	N
23:47	513919	N
23:48	514154	N
23:48	514390	N
23:49	514633	N
23:50	514875	N
23:50	515103	N
23:51	515331	N
23:52	515554	N
23:52	515782	N
23:53	516005	N
23:53	516233	N
23:54	516473	N
23:55	516707	N
23:55	516943	N
23:56	517174	N
23:57	517399	N
23:57	517628	N
23:58	517856	N
23:59	518079	N
23:59	518295	N
24:00	518525	N
24:01	518766	N
24:01	519012	N
24:02	519249	N
24:03	519484	N
24:03	519710	N
24:04	519939	N
24:04	520169	N
24:05	520385	N
24:06	520602	N
24:06	520865	N
24:07	521102	N
24:08	521339	N
24:08	521563	N
24:09	521792	N
24:10	522022	N
24:10	522245	N
24:11	522463	N
24:11	522685	N
24:12	522916	N
24:13	523158	N
24:13	523392	N
24:14	523625	N
24:15	523857	N
24:15	524082	N
24:16	524307	N
24:17	524524	N
24:17	524740	N
24:18	524978	N
24:18	525215	N
24:19	525453	N
24:20	525681	N
24:20	525906	N
24:21	526132	N
24:22	526350	N
24:22	526578	N
24:23	526793	N
24:23	526991	A
24:24	527247	N
24:25	527483	N
24:25	527719	N
24:26	527949	N
24:27	528182	N
24:27	528408	N
24:28	528628	N
24:29	528848	N
24:29	529063	N
24:30	529295	N
24:30	529535	N
24:31	529772	N
24:32	530008	N
24:32	530232	N
24:33	530456	N
24:34	530678	N
24:34	530883	N
24:35	531120	N
24:35	531348	N
24:36	531583	N
24:37	531821	N
24:37	532055	N
24:38	532280	N
24:39	532512	N
24:39	532741	N
24:40	532970	N
24:41	533190	N
24:41	533405	N
24:42	533640	N
24:43	533884	N
24:43	534125	N
24:44	534360	N
24:44	534585	N
24:45	534808	N
24:46	535022	N
24:46	535248	N
24:47	535463	N
24:48	535690	N
24:48	535928	N
24:49	536162	N
24:49	536393	N
24:50	536613	N
24:51	536842	N
24:51	537072	N
24:52	537293	N
24:53	537515	N
24:53	537731	N
24:54	537959	N
24:54	538196	N
24:55	538434	N
24:56	538667	N
24:56	538897	N
24:57	539120	N
24:58	539345	N
24:58	539568	N
24:59	539787	N
25:00	540026	N
25:00	540266	N
25:01	540506	N
25:02	540741	N
25:02	540937	A
25:03	541195	N
25:03	541426	N
25:04	541650	N
25:05	541876	N
25:05	542039	A
25:06	542312	N
25:07	542555	N
25:07	542799	N
25:08	543036	N
25:09	543264	N
25:09	543490	N
25:10	543713	N
25:10	543934	N
25:11	544150	N
25:12	544385	N
25:12	544625	N
25:13	544863	N
25:14	545095	N
25:14	545323	N
25:15	545552	N
25:15	545731	A
25:16	545987	N
25:17	546213	N
25:17	546443	N
25:18	546680	N
25:19	546920	N
25:19	547161	N
25:20	547396	N
25:21	547631	N
25:21	547866	N
25:22	548094	N
25:23	548316	N
25:23	548533	N
25:24	548777	N
25:25	549025	N
25:25	549264	N
25:26	549499	N
25:26	549687	A
25:27	549952	N
25:28	550182	N
25:28	550412	N
25:29	550562	A
25:29	550778	N
25:30	550895	+
25:30	550950	A
25:30	551102	A
25:31	551251	A
25:31	551399	A
25:32	551547	A
25:32	551701	A
25:32	551843	+
25:33	551918	N
25:33	552209	N
25:34	552442	N
25:35	552661	N
25:35	552877	N
25:36	553111	N
25:37	553344	N
25:37	553576	N
25:38	553808	N
25:38	554030	N
25:39	554253	N
25:40	554468	N
25:40	554692	N
25:41	554913	N
25:42	555143	N
25:42	555338	A
25:43	555609	N
25:44	555850	N
25:44	556084	N
25:45	556314	N
25:45	556545	N
25:46	556777	N
25:47	556997	N
25:47	557177	A
25:48	557444	N
25:49	557687	N
25:49	557931	N
25:50	558163	N
25:51	558393	N
25:51	558614	N
25:52	558839	N
25:52	559050	N
25:53	559276	N
25:54	559513	N
25:54	559758	N
25:55	559996	N
25:56	560180	A
25:56	560440	N
25:57	560672	N
25:58	560899	N
25:58	561094	A
25:59	561336	N
25:59	561561	N
26:00	561798	N
26:01	562041	N
26:01	562280	N
26:02	562518	N
26:03	562753	N
26:03	562984	N
26:04	563217	N
26:05	563440	N
26:05	563663	N
26:06	563910	N
26:07	564153	N
26:07	564395	N
26:08	564623	N
26:09	564853	N
26:09	565087	N
26:10	565267	A
26:10	565527	N
26:11	565752	N
26:12	565984	N
26:12	566153	A
26:13	566417	N
26:14	566662	N
26:14	566895	N
26:15	567126	N
26:15	567354	N
26:16	567576	N
26:17	567797	N
26:17	568018	N
26:18	568236	N
26:19	568494	N
26:19	568733	N
26:20	568967	N
26:21	569199	N
26:21	569423	N
26:22	569646	N
26:22	569878	N
26:23	570099	N
26:24	570333	N
26:24	570567	N
26:25	570805	N
26:26	571043	N
26:26	571268	N
26:27	571503	N
26:28	571736	N
26:28	571960	N
26:29	572173	N
26:30	572400	N
26:30	572636	N
26:31	572862	N
26:31	573113	N
26:32	573341	N
26:33	573565	N
26:33	573789	N
26:34	574014	N
26:35	574236	N
26:35	574457	N
26:36	574692	N
26:36	574873	A
26:37	575155	N
26:38	575393	N
26:38	575622	N
26:39	575856	N
26:39	575971	~
26:40	576085	N
26:40	576310	N
26:41	576521	N
26:42	576754	N
26:42	576953	N
26:43	577214	N
26:44	577450	N
26:44	577676	N
26:45	577841	A
26:45	578066	N
26:46	578287	N
26:46	578500	N
26:47	578709	N
26:48	578937	N
26:48	579164	N
26:49	579396	N
26:50	579622	N
26:50	579837	N
26:51	580059	N
26:51	580274	N
26:52	580490	N
26:53	580706	N
26:53	580913	N
26:54	581138	N
26:54	581362	N
26:55	581566	N
26:55	581649	|
26:56	581818	N
26:56	582043	N
26:57	582263	N
26:57	582475	N
26:58	582652	A
26:59	582894	N
26:59	583105	N
27:00	583335	N
27:01	583568	N
27:01	583797	N
27:02	584021	N
27:02	584238	N
27:03	584455	N
27:04	584672	N
27:04	584890	N
27:05	585097	N
27:05	585315	N
27:06	585538	N
27:07	585765	N
27:07	585998	N
27:08	586220	N
27:09	586446	N
27:09	586669	N
27:10	586867	N
27:10	587102	N
27:11	587308	N
27:12	587535	N
27:12	587773	N
27:13	587979	N
27:13	588237	N
27:14	588460	N
27:15	588686	N
27:15	588907	N
27:16	589121	N
27:17	589340	N
27:17	589555	N
27:18	589782	N
27:18	590009	N
27:19	590236	N
27:20	590462	N
27:20	590682	N
27:21	590883	N
27:22	591122	N
27:22	591341	N
27:23	591553	N
27:23	591761	N
27:24	591972	N
27:25	592215	N
27:25	592446	N
27:26	592674	N
27:26	592890	N
27:27	593108	N
27:28	593318	N
27:28	593533	N
27:29	593746	N
27:29	593965	N
27:30	594194	N
27:31	594420	N
27:31	594655	N
27:32	594879	N
27:33	595100	N
27:33	595322	N
27:33	595433	~
27:34	595536	N
27:34	595753	N
27:35	595950	N
27:36	596164	N
27:36	596380	N
27:37	596602	N
27:37	596825	N
27:38	597038	N
27:39	597252	N
27:39	597457	N
27:40	597661	N
27:40	597867	N
27:41	598064	N
27:41	598129	~
27:41	598274	N
27:42	598487	N
27:42	598676	A
27:43	598918	N
27:44	599136	N
27:44	599340	N
27:45	599549	N
27:46	599760	N
27:46	599968	N
27:47	600177	N
27:47	600379	N
27:48	600600	N
27:48	600824	N
27:49	601051	N
27:50	601277	N
27:50	601435	A
27:51	601681	N
27:51	601902	N
27:52	602120	N
27:53	602330	N
27:53	602537	N
27:54	602760	N
27:54	602991	N
27:55	603217	N
27:56	603409	N
27:56	603642	N
27:57	603859	N
27:57	604073	N
27:58	604228	A
27:59	604475	N
27:59	604691	N
28:00	604910	N
28:00	605139	N
28:01	605358	N
28:02	605585	N
28:02	605810	N
28:03	605994	A
28:04	606241	N
28:04	606456	N
28:05	606675	N
28:05	606887	N
28:06	607111	N
28:07	607347	N
28:07	607577	N
28:08	607803	N
28:08	608019	N
28:09	608236	N
28:10	608448	N
28:10	608596	~
28:10	608663	N
28:11	608863	N
28:11	609088	N
28:12	609311	N
28:13	609529	N
28:13	609709	A
28:14	609958	N
28:14	610178	N
28:15	610400	N
28:16	610622	N
28:16	610844	N
28:17	611055	N
28:17	611225	~
28:17	611272	N
28:18	611500	N
28:19	611689	A
28:19	611957	N
28:20	612180	N
28:21	612399	N
28:21	612613	N
28:22	612824	N
28:22	613038	N
28:23	613239	N
28:24	613451	N
28:24	613683	N
28:25	613904	N
28:25	614127	N
28:26	614341	N
28:26	614511	A
28:27	614754	N
28:28	614976	N
28:28	615194	N
28:29	615398	N
28:30	615617	N
28:30	615843	N
28:31	616071	N
28:31	616304	N
28:32	616528	N
28:33	616759	N
28:33	616979	N
28:34	617133	A
28:34	617341	N
28:35	617455	+
28:35	617504	A
28:35	617647	A
28:36	617797	A
28:36	617951	A
28:36	618068	+
28:37	618164	N
28:37	618287	+
28:37	618349	A
28:38	618502	A
28:38	618651	A
28:39	618861	A
28:39	619036	A
28:39	619178	A
28:40	619322	A
28:40	619466	A
28:41	619608	A
28:41	619740	A
28:41	619884	A
28:42	620037	A
28:42	620189	A
28:43	620305	+
28:43	620398	N
28:44	620692	N
28:44	620926	N
28:45	621150	N
28:45	621346	N
28:46	621566	N
28:47	621778	N
28:47	621987	N
28:48	622158	A
28:48	622416	N
28:49	622663	N
28:50	622893	N
28:50	623118	N
28:51	623342	N
28:52	623571	N
28:52	623802	N
28:53	624000	A
28:54	624244	N
28:54	624482	N
28:55	624722	N
28:56	624962	N
28:56	625198	N
28:57	625434	N
28:57	625668	N
28:58	625894	N
28:59	626120	N
28:59	626344	N
29:00	626590	N
29:01	626843	N
29:01	627035	A
29:02	627315	N
29:03	627558	N
29:03	627800	N
29:04	628032	N
29:05	628267	N
29:05	628499	N
29:06	628740	N
29:07	628935	A
29:07	629217	N
29:08	629460	N
29:09	629704	N
29:09	629939	N
29:10	630176	N
29:11	630405	N
29:11	630631	N
29:12	630873	N
29:13	631125	N
29:13	631372	N
29:14	631612	N
29:14	631779	A
29:15	631897	+
29:15	631983	A
29:15	632151	A
29:16	632292	A
29:16	632434	A
29:17	632577	A
29:17	632720	A
29:17	632869	+
29:18	632937	N
29:19	633247	N
29:19	633490	N
29:20	633727	N
29:20	633959	N
29:21	634191	N
29:22	634422	N
29:22	634620	N
29:23	634866	N
29:24	635101	N
29:24	635344	N
29:25	635592	N
29:26	635836	N
29:26	636067	N
29:27	636301	N
29:28	636516	N
29:28	636750	N
29:29	636969	N
29:30	637205	N
29:30	637446	N
29:31	637687	N
29:32	637925	N
29:32	638157	N
29:33	638391	N
29:33	638623	N
29:34	638855	N
29:35	639085	N
29:35	639306	N
29:36	639493	A
29:37	639775	N
29:37	640022	N
29:38	640261	N
29:39	640499	N
29:39	640733	N
29:40	640964	N
29:41	641193	N
29:41	641420	N
29:42	641669	N
29:43	641919	N
29:43	642172	N
29:44	642411	N
29:45	642618	N
29:45	642878	N
29:46	643107	N
29:47	643339	N
29:47	643568	N
29:48	643803	N
29:49	644046	N
29:49	644277	N
29:50	644474	N
29:50	644740	N
29:51	644969	N
29:52	645195	N
29:52	645355	A
29:53	645603	N
29:54	645840	N
29:54	646075	N
29:55	646320	N
29:56	646564	N
29:56	646795	N
29:57	647034	N
29:57	647265	N
29:58	647443	A
29:59	647717	N
29:59	647947	N
30:00	648194	N
30:01	648435	N
30:01	648673	N
30:02	648912	N
30:03	649149	N
30:03	649387	N
30:04	649627	N
30:05	649857	N
