0:00	57	N
0:00	250	N
0:01	471	N
0:01	625	V
0:02	866	N
0:03	1081	N
0:03	1298	N
0:04	1586	N
0:05	1818	N
0:05	2028	N
0:06	2249	N
0:06	2508	N
0:07	2749	N
0:08	2987	N
0:09	3246	N
0:09	3464	N
0:10	3674	N
0:10	3841	V
0:11	4151	N
0:12	4381	N
0:12	4595	N
0:13	4825	N
0:14	5124	N
0:14	5363	N
0:15	5631	N
0:16	5828	N
0:16	6092	N
0:17	6364	N
0:18	6531	V
0:18	6740	N
0:19	6947	N
0:19	7187	N
0:20	7414	N
0:21	7617	N
0:21	7842	N
0:22	8115	F
0:23	8399	N
0:24	8669	N
0:24	8876	N
0:25	9103	N
0:26	9415	N
0:26	9678	N
0:27	9899	N
0:28	10247	N
0:29	10498	N
0:29	10750	N
0:30	10952	N
0:30	11072	V
0:31	11427	N
0:32	11670	N
0:33	11923	N
0:33	12167	N
0:34	12376	N
0:34	12506	V
0:35	12789	N
0:36	13016	N
0:36	13201	N
0:37	13452	N
0:38	13723	N
0:38	13977	N
0:39	14197	N
0:40	14449	N
0:40	14667	N
0:41	14954	N
0:42	15184	N
0:42	15413	N
0:43	15642	N
0:44	15874	N
0:44	16125	N
0:45	16352	N
0:46	16606	N
0:46	16845	N
0:47	16998	V
0:47	17259	N
0:48	17521	N
0:49	17787	N
0:50	18054	N
0:50	18257	N
0:51	18513	N
0:52	18747	N
0:52	18977	N
0:53	19102	V
0:53	19355	N
0:54	19555	N
0:54	19767	N
0:55	20034	N
0:56	20274	N
0:56	20510	N
0:57	20692	N
0:58	21047	N
0:59	21246	N
0:59	21444	N
1:00	21638	N
1:00	21840	N
1:01	22083	N
1:02	22356	N
1:02	22618	N
1:03	22876	N
1:04	23184	N
1:05	23438	N
1:05	23691	N
1:06	23939	N
1:07	24193	N
1:07	24431	N
1:08	24700	N
1:09	24968	N
1:09	25192	N
1:10	25390	N
1:10	25528	V
1:11	25846	N
1:12	26103	N
1:13	26308	N
1:13	26514	N
1:14	26779	N
1:15	27111	N
1:16	27365	N
1:16	27579	N
1:17	27826	N
1:18	28099	N
1:18	28332	N
1:19	28619	N
1:20	28886	N
1:20	29135	N
1:21	29413	N
1:22	29661	N
1:23	29909	N
1:23	30205	N
1:24	30448	N
1:25	30683	N
1:25	30955	N
1:26	31150	N
1:27	31423	N
1:27	31636	N
1:28	31916	N
1:29	32151	N
1:29	32340	N
1:30	32552	N
1:31	32805	N
1:31	33083	N
1:32	33338	N
1:33	33605	N
1:34	33870	N
1:34	34130	N
1:35	34379	N
1:36	34606	N
1:36	34800	N
1:37	35070	N
1:37	35223	V
1:38	35373	V
1:39	35695	N
1:39	35914	N
1:40	36166	N
1:41	36419	N
1:41	36644	N
1:42	36888	N
1:43	37120	N
1:43	37329	N
1:44	37611	N
1:45	37875	N
1:45	38133	N
1:46	38369	N
1:47	38602	N
1:47	38851	N
1:48	39066	N
1:49	39341	N
1:49	39556	N
1:50	39836	N
1:51	40111	N
1:52	40328	N
1:52	40537	N
1:53	40777	N
1:54	41046	N
1:54	41300	N
1:55	41565	N
1:56	41816	N
1:56	42048	N
1:57	42288	N
1:58	42488	N
1:58	42680	N
1:59	42918	N
1:59	43115	N
2:00	43345	N
2:00	43549	N
2:01	43799	N
2:02	44132	N
2:03	44371	N
2:03	44607	V
2:04	44747	V
2:05	45051	N
2:05	45208	V
2:06	45513	N
2:06	45671	V
2:07	45981	N
2:08	46235	N
2:08	46428	V
2:09	46666	N
2:10	46848	V
2:10	47111	N
2:11	47356	N
2:12	47584	V
2:12	47827	N
2:13	48100	N
2:14	48301	V
2:14	48520	V
2:15	48836	N
2:16	49088	N
2:16	49315	N
2:17	49517	N
2:17	49677	V
2:18	49996	N
2:19	50288	N
2:20	50559	N
2:21	50811	N
2:21	51058	N
2:22	51323	N
2:23	51521	N
2:23	51813	N
2:24	52084	N
2:25	52368	N
2:26	52612	N
2:26	52919	N
2:27	53168	N
2:28	53420	N
2:29	53665	N
2:29	53964	N
2:30	54245	N
2:31	54552	N
2:32	54781	N
2:32	54998	N
2:33	55233	N
2:34	55543	N
2:34	55795	N
2:35	56059	N
2:36	56310	N
2:37	56598	N
2:37	56871	N
2:38	57127	N
2:39	57371	N
2:39	57599	N
2:40	57852	N
2:41	58092	N
2:42	58361	N
2:42	58572	N
2:43	58838	N
2:44	59066	N
2:45	59401	N
2:45	59609	N
2:46	59879	N
2:46	60118	N
2:47	60360	N
2:48	60565	N
2:48	60763	N
2:49	61017	N
2:50	61272	N
2:50	61526	N
2:51	61791	N
2:52	62019	N
2:52	62251	N
2:53	62474	N
2:54	62710	N
2:54	62978	N
2:55	63209	N
2:56	63477	N
2:56	63716	N
2:57	63945	N
2:58	64218	N
2:59	64468	N
2:59	64769	N
3:00	64991	N
3:01	65238	N
3:02	65520	N
3:02	65808	N
3:03	66039	N
3:04	66302	N
3:05	66624	N
3:05	66822	N
3:06	67079	N
3:07	67331	N
3:07	67572	N
3:07	67636	~
3:08	67838	N
3:09	68118	N
3:09	68361	N
3:10	68564	N
3:11	68821	N
3:11	69079	N
3:12	69303	N
3:13	69525	N
3:13	69750	N
3:14	70016	N
3:15	70290	N
3:15	70535	N
3:16	70792	N
3:17	71026	N
3:18	71282	N
3:18	71482	~
3:18	71506	N
3:19	71728	N
3:19	71935	N
3:20	72063	V
3:20	72234	V
3:21	72567	N
3:22	72792	N
3:22	73016	N
3:23	73224	N
3:24	73463	N
3:24	73712	N
3:25	73993	N
3:26	74250	N
3:26	74469	N
3:27	74591	V
3:27	74829	N
3:28	75070	N
3:29	75275	N
3:29	75478	N
3:30	75660	a
3:30	75955	N
3:31	76223	N
3:32	76448	N
3:33	76686	N
3:33	76898	N
3:34	77151	N
3:34	77349	N
3:35	77540	N
3:36	77797	N
3:36	78035	N
3:37	78277	N
3:38	78521	N
3:38	78766	N
3:39	78987	N
3:39	79166	N
3:40	79476	N
3:41	79718	N
3:42	79957	N
3:42	80212	N
3:43	80461	N
3:43	80585	V
3:44	80902	N
3:45	81064	~
3:45	81184	N
3:46	81386	N
3:46	81644	N
3:47	81875	N
3:48	82098	N
3:48	82307	~
3:48	82390	N
3:49	82666	N
3:50	82919	N
3:50	83132	N
3:51	83394	N
3:52	83665	N
3:53	83915	N
3:53	84045	V
3:54	84319	N
3:54	84523	N
3:55	84787	N
3:56	85059	N
3:57	85323	N
3:57	85575	N
3:58	85815	N
3:59	86076	N
3:59	86313	N
4:00	86537	N
4:00	86743	V
4:02	87128	N
4:02	87401	N
4:03	87677	N
4:04	87887	N
4:04	88148	N
4:05	88260	~
4:05	88393	N
4:06	88634	N
4:06	88856	N
4:07	89073	N
4:08	89314	N
4:08	89598	N
4:09	89897	N
4:10	90162	N
4:11	90367	N
4:11	90589	N
4:12	90856	N
4:13	91120	N
4:13	91361	N
4:14	91586	N
4:15	91836	N
4:15	92138	N
4:16	92402	N
4:17	92559	V
4:17	92812	N
4:18	93011	N
4:19	93258	N
4:19	93384	V
4:20	93666	N
4:20	93921	N
4:21	94185	N
4:22	94477	N
4:23	94707	N
4:24	95048	N
4:24	95280	N
4:25	95575	N
4:26	95839	N
4:26	96097	N
4:27	96396	N
4:28	96621	N
4:28	96781	a
4:29	97092	N
4:30	97338	N
4:31	97577	N
4:31	97832	N
4:32	98078	N
4:33	98385	N
4:33	98563	N
4:34	98789	N
4:35	99069	N
4:35	99317	N
4:36	99571	N
4:37	99830	N
4:37	100035	N
4:38	100268	N
4:39	100555	N
4:39	100728	V
4:40	100975	N
4:41	101238	N
4:41	101457	N
4:42	101657	N
4:43	101908	N
4:43	102140	N
4:44	102382	N
4:45	102645	N
4:45	102918	N
4:46	103166	N
4:47	103441	N
4:47	103652	N
4:48	103886	N
4:49	104138	N
4:50	104425	N
4:50	104724	N
4:51	104956	N
4:52	105187	N
4:52	105424	N
4:53	105704	N
4:54	105949	N
4:54	106156	N
4:55	106382	N
4:55	106529	V
4:56	106821	N
4:57	107088	N
4:58	107313	N
4:58	107522	N
4:59	107733	N
4:59	107979	N
5:00	108192	N
5:00	108309	V
5:01	108653	N
5:02	108836	N
5:02	109059	N
5:03	109301	N
5:04	109544	N
5:04	109765	N
5:05	110003	N
5:06	110254	N
5:06	110508	N
5:07	110766	N
5:08	110994	N
5:09	111260	N
5:09	111532	N
5:10	111764	N
5:11	111998	N
5:11	112267	N
5:12	112495	N
5:13	112703	N
5:13	112952	N
5:14	113163	N
5:14	113372	N
5:15	113611	N
5:16	113922	N
5:17	114182	N
5:17	114392	N
5:18	114589	N
5:18	114767	N
5:19	115061	N
5:20	115328	N
5:21	115560	N
5:21	115795	N
5:22	115925	V
5:22	116225	N
5:23	116466	N
5:24	116699	N
5:24	116908	N
5:25	117162	N
5:26	117509	N
5:27	117760	N
5:27	117990	N
5:28	118307	N
5:29	118542	N
5:29	118788	N
5:30	119017	N
5:31	119265	N
5:31	119498	N
5:32	119676	V
5:33	119978	N
5:33	120184	N
5:34	120411	N
5:35	120750	N
5:36	121055	N
5:36	121308	N
5:37	121558	N
5:38	121834	N
5:39	122081	N
5:39	122363	N
5:40	122593	N
5:41	122836	N
5:41	123070	N
5:42	123290	N
5:43	123511	N
5:43	123819	N
5:44	124052	N
5:45	124293	N
5:45	124527	N
5:46	124824	N
5:47	125095	N
5:48	125309	N
5:48	125572	N
5:49	125825	N
5:50	126121	N
5:51	126398	N
5:51	126638	N
5:52	126887	N
5:53	127162	N
5:53	127409	N
5:54	127644	N
5:55	127874	N
5:55	128134	N
5:56	128420	N
5:57	128620	N
5:57	128869	N
5:58	129010	V
5:59	129306	N
5:59	129521	N
6:00	129755	N
6:01	130015	N
6:01	130275	N
6:02	130550	N
6:03	130820	N
6:04	131147	N
6:05	131502	N
6:05	131754	N
6:06	132012	N
6:07	132273	N
6:08	132535	N
6:08	132806	N
6:09	133046	N
6:10	133337	N
6:11	133632	N
6:11	133888	N
6:12	134089	N
6:13	134380	N
6:14	134642	N
6:14	134895	N
6:15	135169	N
6:16	135400	N
6:16	135644	N
6:17	135852	N
6:18	136092	N
6:18	136334	N
6:19	136663	N
6:20	136904	N
6:21	137188	N
6:21	137436	N
6:22	137680	N
6:23	137925	N
6:23	138152	N
6:24	138411	N
6:25	138664	N
6:25	138929	N
6:26	139284	N
6:27	139527	N
6:28	139777	N
6:28	140030	N
6:29	140249	N
6:30	140545	N
6:31	140829	N
6:31	141105	N
6:32	141358	N
6:33	141649	N
6:34	141919	N
6:34	142194	N
6:35	142385	N
6:36	142613	N
6:36	142865	N
6:37	143103	N
6:38	143390	N
6:39	143666	N
6:39	143937	N
6:40	144200	N
6:41	144447	N
6:41	144671	N
6:42	144918	N
6:43	145128	N
6:43	145415	N
6:44	145706	N
6:45	145938	N
6:46	146194	N
6:46	146403	N
6:47	146622	N
6:47	146836	N
6:48	147037	N
6:49	147245	N
6:49	147572	N
6:50	147831	N
6:51	148101	N
6:52	148335	N
6:52	148547	N
6:53	148781	N
6:53	149015	N
6:54	149235	N
6:55	149558	N
6:56	149827	N
6:56	150049	N
6:57	150315	N
6:58	150572	N
6:58	150820	N
6:59	151031	N
7:00	151246	N
7:00	151456	N
7:00	151554	+
7:01	151617	V
7:01	151748	V
7:02	151936	V
7:02	152055	V
7:02	152196	V
7:03	152338	V
7:03	152488	+
7:03	152603	N
7:04	152741	V
7:05	153060	N
7:05	153293	N
7:06	153497	N
7:07	153755	N
7:07	154044	N
7:08	154311	N
7:09	154552	N
7:09	154775	N
7:10	155024	N
7:11	155396	N
7:12	155637	N
7:13	155904	N
7:13	156158	N
7:14	156444	N
7:15	156699	N
7:15	156936	N
7:16	157176	N
7:17	157397	N
7:17	157608	N
7:18	157821	N
7:18	158036	N
7:19	158308	N
7:20	158548	N
7:21	158948	N
7:22	159209	N
7:22	159476	N
7:23	159734	N
7:24	159935	N
7:24	160177	N
7:25	160439	N
7:26	160722	N
7:27	160980	N
7:27	161212	N
7:28	161477	N
7:29	161701	N
7:29	161933	N
7:30	162165	N
7:31	162438	N
7:31	162699	N
7:32	162842	V
7:33	163127	N
7:33	163360	N
7:34	163594	N
7:35	163849	N
7:35	163975	V
7:36	164221	N
7:36	164446	N
7:37	164741	N
7:38	165015	N
7:39	165281	N
7:39	165494	N
7:40	165694	N
7:40	165928	N
7:41	166189	N
7:42	166469	N
7:43	166685	N
7:43	166883	N
7:44	167127	N
7:44	167377	N
7:45	167624	N
7:46	167894	N
7:47	168196	N
7:47	168444	N
7:48	168685	N
7:49	168952	N
7:50	169218	N
7:50	169450	N
7:51	169714	N
7:52	170053	N
7:52	170222	V
7:53	170471	N
7:53	170603	V
7:54	170855	N
7:55	171117	N
7:56	171380	N
7:56	171592	N
7:57	171828	N
7:58	172098	N
7:58	172359	N
7:59	172571	N
8:00	172816	N
8:00	173041	N
8:01	173291	N
8:02	173594	N
8:02	173844	N
8:03	174187	N
8:04	174590	N
8:05	174841	N
8:06	175108	N
8:07	175371	N
8:07	175604	N
8:08	175906	N
8:09	176168	N
8:10	176404	N
8:10	176603	N
8:10	176723	V
8:11	176963	N
8:12	177145	N
8:12	177400	N
8:13	177703	N
8:14	177983	N
8:15	178232	N
8:15	178492	N
8:16	178747	N
8:17	178935	N
8:17	179273	N
8:18	179499	N
8:19	179648	a
8:19	179936	N
8:20	180189	N
8:21	180452	N
8:21	180680	N
8:22	180965	N
8:23	181213	N
8:24	181441	N
8:24	181642	N
8:25	181865	N
8:25	182159	N
8:26	182453	N
8:27	182748	N
8:28	182982	N
8:28	183195	N
8:29	183433	N
8:30	183683	N
8:30	183947	N
8:31	184223	N
8:32	184451	N
8:33	184719	N
8:33	184966	N
8:34	185120	V
8:35	185459	N
8:35	185622	V
8:36	185887	N
8:37	186185	N
8:37	186469	N
8:38	186727	N
8:39	186973	N
8:39	187199	N
8:40	187405	N
8:41	187644	N
8:41	187890	N
8:42	188127	N
8:43	188384	N
8:44	188675	N
8:44	188912	N
8:45	189195	N
8:46	189454	N
8:46	189677	N
8:47	189969	N
8:48	190209	N
8:48	190430	N
8:49	190678	N
8:50	190940	N
8:51	191206	N
8:51	191491	N
8:52	191764	N
8:53	192036	N
8:54	192276	N
8:54	192503	N
8:55	192780	N
8:56	193066	N
8:56	193300	N
8:57	193546	N
8:58	193764	N
8:58	193977	N
8:59	194096	V
9:00	194427	N
9:00	194641	F
9:01	194930	N
9:02	195172	N
9:02	195398	N
9:03	195658	N
9:04	195920	N
9:04	196137	N
9:05	196334	N
9:06	196588	N
9:06	196845	N
9:07	197103	N
9:08	197375	N
9:08	197603	N
9:09	197830	F
9:10	198077	N
9:10	198291	N
9:11	198437	V
9:12	198735	N
9:12	198956	N
9:13	199206	N
9:14	199444	N
9:14	199709	N
9:15	199940	N
9:16	200202	N
9:16	200446	N
9:17	200692	N
9:18	200919	N
9:18	201041	V
9:19	201288	N
9:19	201524	N
9:20	201795	N
9:21	202037	N
9:21	202159	V
9:22	202482	N
9:23	202699	N
9:23	202926	N
9:24	203174	N
9:24	203397	N
9:25	203667	N
9:26	203946	N
9:27	204186	N
9:27	204397	N
9:28	204623	N
9:29	204873	N
9:29	205137	N
9:30	205357	N
9:31	205578	N
9:31	205802	N
9:32	206066	N
9:33	206318	N
9:33	206572	N
9:34	206787	N
9:35	207030	N
9:35	207234	N
9:36	207472	N
9:37	207788	N
9:37	208061	N
9:38	208325	N
9:39	208598	N
9:40	208875	N
9:40	209118	N
9:41	209339	N
9:42	209588	N
9:42	209844	N
9:43	210171	N
9:44	210420	N
9:45	210677	N
9:45	210948	N
9:46	211204	N
9:47	211439	N
9:48	211782	N
9:48	212029	N
9:49	212252	N
9:50	212502	N
9:51	212795	N
9:52	213153	N
9:52	213465	N
9:53	213741	N
9:54	214000	N
9:55	214221	N
9:55	214480	N
9:56	214793	N
9:57	215058	N
9:58	215288	N
9:58	215486	N
9:59	215717	N
10:00	216022	N
10:00	216091	+
10:00	216161	V
10:01	216416	N
10:01	216657	N
10:02	216785	V
10:03	217080	N
10:03	217294	N
10:04	217547	V
10:05	217846	N
10:05	218046	N
10:06	218274	V
10:06	218413	V
10:07	218539	+
10:07	218666	N
10:08	218922	N
10:08	219162	N
10:09	219414	N
10:09	219533	V
10:10	219871	N
10:11	220086	N
10:11	220278	N
10:12	220445	N
10:12	220676	N
10:13	220959	N
10:14	221237	N
10:15	221517	N
10:16	221786	N
10:16	221994	N
10:17	222251	N
10:17	222451	N
10:18	222665	N
10:18	222826	a
10:19	222947	V
10:20	223259	N
10:20	223512	N
10:21	223759	N
10:22	224023	N
10:22	224263	N
10:23	224480	N
10:24	224734	N
10:24	224998	N
10:25	225217	N
10:26	225477	N
10:27	225733	N
10:27	226041	N
10:28	226319	N
10:29	226563	N
10:30	226815	N
10:30	227077	N
10:31	227370	N
10:32	227606	N
10:33	227942	N
10:33	228154	N
10:34	228408	N
10:35	228670	N
10:35	228899	N
10:36	229096	N
10:37	229332	N
10:37	229588	N
10:38	229858	N
10:39	230101	N
10:39	230310	N
10:40	230529	N
10:40	230724	N
10:41	230976	N
10:42	231193	N
10:42	231384	N
10:43	231530	V
10:43	231784	N
10:44	232016	N
10:45	232242	N
10:45	232491	N
10:46	232686	N
10:46	232880	N
10:47	233103	N
10:48	233351	N
10:48	233611	N
10:49	233876	N
10:50	234115	N
10:51	234377	N
10:51	234621	N
10:52	234865	N
10:52	235059	N
10:53	235267	N
10:54	235501	N
10:55	235858	N
10:55	236095	V
10:56	236409	N
10:57	236702	N
10:58	237000	N
10:58	237229	N
10:59	237464	N
11:00	237713	N
11:01	237965	N
11:01	238280	N
11:02	238558	N
11:03	238809	N
11:04	239045	N
11:04	239280	N
11:05	239516	N
11:05	239744	N
11:06	239934	N
11:07	240172	N
11:07	240409	N
11:08	240644	N
11:09	240933	N
11:10	241202	N
11:10	241435	N
11:11	241666	N
11:11	241916	N
11:12	242118	N
11:12	242242	V
11:13	242569	N
11:14	242845	N
11:15	243149	N
11:16	243410	N
11:16	243634	N
11:17	243835	N
11:18	244123	N
11:18	244381	N
11:19	244598	N
11:20	244896	N
11:20	245134	N
11:21	245338	N
11:22	245592	N
11:22	245817	N
11:23	246000	V
11:24	246283	N
11:24	246512	N
11:25	246782	N
11:26	247112	N
11:27	247347	N
11:27	247668	N
11:28	247927	N
11:29	248210	N
11:29	248372	V
11:30	248640	N
11:31	248885	N
11:32	249214	N
11:32	249478	N
11:33	249696	N
11:34	249984	N
11:35	250220	N
11:35	250458	N
11:36	250709	N
11:37	250954	N
11:37	251206	N
11:38	251499	N
11:39	251745	N
11:40	252001	N
11:40	252236	N
11:41	252480	N
11:41	252719	N
11:42	252968	N
11:43	253210	N
11:44	253456	N
11:44	253699	N
11:45	253924	N
11:46	254185	N
11:46	254430	N
11:47	254648	N
11:48	254911	N
11:48	255143	N
11:49	255456	N
11:50	255735	N
11:51	255971	N
11:51	256179	N
11:52	256454	N
11:53	256721	N
11:53	256942	N
11:54	257172	N
11:55	257427	N
11:55	257661	N
11:56	257906	N
11:57	258176	N
11:57	258406	N
11:58	258648	N
11:59	258876	N
11:59	259118	N
12:00	259375	N
12:01	259606	N
12:01	259817	N
12:02	260065	N
12:03	260329	N
12:03	260576	N
12:04	260801	N
12:05	261025	N
12:05	261279	N
12:06	261530	N
12:07	261722	N
12:07	261946	N
12:08	262157	N
12:08	262281	V
12:09	262537	N
12:09	262691	V
12:10	262935	N
12:11	263199	N
12:11	263414	N
12:12	263669	N
12:13	263943	N
12:13	264224	N
12:14	264503	N
12:15	264751	N
12:16	265015	N
12:16	265216	N
12:17	265449	N
12:17	265667	N
12:18	265912	N
12:19	266253	N
12:20	266508	N
12:20	266728	N
12:21	266981	N
12:22	267224	N
12:23	267538	N
12:23	267795	N
12:24	268119	N
12:25	268393	N
12:26	268609	N
12:26	268893	N
12:27	269130	N
12:28	269406	N
12:28	269627	N
12:29	269876	N
12:30	270122	N
12:31	270363	N
12:31	270572	N
12:32	270819	N
12:33	271138	N
12:33	271386	N
12:34	271620	N
12:35	271846	N
12:35	272087	N
12:36	272321	N
12:37	272556	N
12:37	272802	N
12:38	273032	N
12:39	273327	N
12:39	273563	N
12:40	273691	V
12:40	273938	N
12:41	274199	N
12:42	274460	N
12:43	274754	N
12:43	275027	N
12:44	275264	N
12:45	275564	N
12:46	275819	N
12:46	276040	N
12:47	276257	N
12:48	276541	N
12:48	276798	N
12:49	277060	N
12:50	277311	N
12:50	277520	N
12:51	277725	V
12:51	277849	a
12:52	277983	N
12:52	278199	N
12:53	278421	N
12:54	278677	N
12:54	278924	N
12:55	279167	N
12:56	279392	N
12:56	279587	N
12:57	279823	N
12:57	280020	V
12:58	280336	N
12:59	280503	V
12:59	280748	N
13:00	280997	N
13:01	281255	N
13:01	281500	N
13:02	281759	N
13:03	281989	N
13:03	282222	N
13:04	282495	N
13:05	282704	N
13:06	282964	N
13:06	283178	N
13:07	283398	N
13:08	283680	N
13:08	283946	N
13:09	284237	N
13:10	284533	N
13:11	284813	N
13:11	285068	N
13:12	285287	N
13:13	285518	N
13:13	285767	V
13:14	286040	N
13:15	286286	N
13:15	286558	N
13:16	286823	N
13:17	287058	N
13:17	287206	V
13:18	287385	V
13:18	287622	N
13:19	287854	N
13:20	288091	N
13:20	288304	N
13:21	288514	V
13:21	288623	V
13:22	288753	N
13:22	288924	V
13:22	289052	V
13:23	289380	N
13:24	289607	N
13:25	289841	N
13:25	290125	N
13:26	290390	N
13:27	290639	N
13:27	290842	N
13:28	291139	N
13:29	291443	N
13:30	291675	N
13:30	291915	N
13:31	292195	N
13:32	292443	N
13:33	292780	N
13:33	293038	N
13:34	293285	N
13:35	293520	N
13:36	293779	N
13:36	293994	N
13:37	294261	N
13:38	294498	N
13:38	294753	N
13:39	295047	N
13:40	295311	N
13:41	295569	N
13:41	295797	N
13:42	296032	N
13:43	296283	N
13:43	296565	N
13:44	296827	N
13:45	297107	N
13:45	297335	N
13:46	297565	N
13:47	297761	N
13:47	297902	V
13:48	298133	N
13:48	298329	N
13:49	298595	N
13:50	298810	N
13:50	298965	V
13:50	299130	V
13:51	299423	N
13:52	299689	N
13:53	299958	N
13:53	300222	N
13:54	300462	N
13:55	300716	N
13:56	300972	N
13:56	301175	N
13:57	301429	N
13:58	301685	N
13:58	301947	N
13:59	302198	N
14:00	302466	N
14:00	302695	N
14:01	302908	N
14:01	302953	~
14:01	303063	|
14:02	303150	N
14:02	303400	N
14:03	303520	~
14:03	303630	N
14:04	303860	~
14:04	303960	N
14:04	304181	N
14:05	304415	N
14:06	304657	N
14:07	304933	N
14:07	305189	N
14:08	305413	N
14:09	305684	N
14:09	305912	N
14:10	306118	V
14:11	306390	N
14:11	306544	a
14:12	306775	N
14:12	307021	N
14:13	307276	N
14:14	307539	N
14:15	307814	N
14:15	308069	N
14:16	308319	N
14:17	308532	N
14:17	308865	N
14:18	309086	N
14:19	309334	N
14:19	309590	N
14:20	309827	N
14:21	310082	N
14:22	310353	N
14:22	310607	N
14:23	310871	N
14:24	311040	a
14:24	311299	N
14:25	311629	N
14:26	311884	N
14:26	312114	N
14:27	312366	N
14:28	312604	N
14:28	312833	N
14:29	313079	N
14:30	313332	N
14:30	313557	N
14:31	313829	N
14:32	314097	N
14:33	314384	N
14:33	314620	N
14:34	314843	N
14:35	315101	N
14:35	315326	N
14:36	315560	N
14:37	315844	N
14:37	316018	V
14:38	316268	N
14:38	316397	V
14:39	316665	N
14:40	316911	N
14:41	317172	N
14:41	317474	N
14:42	317706	N
14:43	317954	N
14:43	318163	N
14:44	318405	N
14:45	318620	N
14:45	318884	N
14:46	319141	N
14:47	319390	N
14:47	319637	N
14:48	319881	N
14:49	320139	N
14:49	320386	N
14:50	320659	N
14:51	320948	N
14:52	321127	N
14:52	321365	N
14:53	321653	N
14:54	321877	N
14:54	322109	N
14:55	322420	N
14:56	322694	N
14:56	322900	N
14:57	323161	N
14:58	323480	N
14:59	323716	N
14:59	323962	N
15:00	324194	N
15:01	324442	N
15:01	324658	N
15:02	324900	N
15:03	325100	N
15:03	325413	N
15:04	325651	N
15:05	325849	N
15:05	326101	N
15:06	326302	N
15:07	326529	N
15:07	326751	F
15:08	327014	N
15:09	327277	N
15:09	327504	N
15:10	327758	N
15:11	327995	N
15:11	328228	N
15:12	328492	N
15:13	328818	N
15:14	329084	N
15:14	329322	N
15:15	329564	N
15:16	329780	N
15:16	330000	N
15:17	330219	N
15:17	330418	N
15:18	330663	N
15:19	330876	N
15:19	331104	N
15:20	331384	N
15:21	331672	N
15:21	331903	N
15:22	332157	N
15:23	332398	N
15:23	332611	N
15:24	332888	N
15:25	333110	N
15:26	333407	N
15:26	333568	V
15:27	333854	N
15:27	334074	N
15:28	334306	N
15:29	334568	N
15:30	334818	N
15:30	334950	V
15:31	335189	N
15:31	335425	N
15:32	335673	N
15:33	335966	N
15:33	336215	N
15:34	336459	N
15:35	336745	N
15:35	336947	N
15:36	337063	V
15:37	337348	N
15:37	337606	N
15:38	337900	N
15:39	338154	N
15:40	338437	N
15:40	338655	N
15:41	338878	N
15:42	339120	N
15:42	339357	N
15:42	339479	V
15:44	339859	N
15:44	340136	N
15:45	340355	N
15:45	340479	V
15:46	340778	N
15:47	341004	N
15:47	341223	N
15:48	341450	N
15:48	341636	N
15:49	341898	N
15:50	342165	N
15:51	342412	N
15:51	342607	N
15:52	342850	N
15:53	343094	N
15:53	343423	N
15:54	343642	N
15:55	343881	N
15:55	344103	N
15:56	344343	N
15:57	344572	N
15:57	344825	N
15:58	345088	N
15:59	345349	N
15:59	345494	~
15:59	345585	N
16:00	345673	~
16:00	345775	N
16:01	345985	N
16:01	346090	~
16:02	346350	~
16:02	346520	N
16:02	346674	V
16:03	346910	N
16:04	347164	N
16:04	347392	N
16:05	347615	N
16:06	347806	N
16:06	348035	N
16:07	348338	N
16:08	348546	N
16:08	348778	N
16:09	349053	N
16:10	349268	N
16:10	349394	a
16:11	349615	~
16:11	349744	N
16:11	349899	V
16:12	350207	N
16:13	350378	V
16:14	350645	N
16:14	350916	N
16:15	351160	N
16:16	351371	N
16:16	351638	N
16:17	351908	N
16:18	352115	N
16:18	352367	N
16:19	352599	N
16:20	352905	N
16:20	352982	~
16:20	353142	N
16:21	353397	N
16:22	353651	N
16:23	353884	N
16:23	353969	~
16:23	354154	N
16:24	354394	N
16:24	354520	~
16:24	354596	N
16:25	354766	~
16:25	354854	N
16:26	355093	N
16:27	355407	N
16:27	355672	N
16:28	355890	N
16:29	356137	N
16:29	356365	N
16:30	356605	N
16:31	356845	N
16:31	357080	N
16:32	357300	N
16:33	357594	N
16:34	357880	N
16:34	358135	N
16:35	358388	N
16:36	358609	N
16:36	358816	N
16:37	359053	N
16:38	359287	N
16:38	359551	N
16:39	359805	N
16:40	360057	N
16:40	360309	N
16:41	360453	a
16:42	360722	N
16:42	360929	N
16:43	361188	N
16:44	361537	N
16:45	361816	N
16:45	362072	N
16:46	362412	N
16:47	362607	N
16:47	362855	N
16:48	363113	N
16:49	363382	N
16:50	363630	N
16:50	363913	N
16:51	364162	N
16:52	364417	N
16:52	364639	N
16:53	364893	N
16:54	365133	N
16:54	365380	N
16:55	365640	N
16:56	365878	N
16:56	366090	N
16:57	366154	+
16:57	366218	V
16:58	366551	N
16:58	366710	V
16:59	367040	N
17:00	367203	V
17:00	367320	+
17:00	367437	N
17:01	367668	N
17:01	367814	V
17:02	368074	N
17:02	368237	V
17:03	368491	N
17:04	368787	N
17:04	368862	+
17:04	368938	V
17:05	369264	N
17:06	369424	V
17:06	369712	N
17:07	369893	V
17:07	370012	+
17:08	370131	N
17:08	370398	N
17:09	370617	N
17:10	370893	N
17:11	371172	N
17:11	371432	N
17:12	371644	N
17:13	371900	N
17:13	372183	N
17:14	372459	N
17:15	372718	N
17:16	372963	N
17:16	373221	N
17:17	373469	N
17:18	373732	N
17:18	373907	N
17:19	374143	N
17:20	374443	N
17:20	374708	N
17:21	374964	N
17:22	375246	N
17:23	375561	N
17:23	375821	N
17:24	376061	N
17:25	376330	N
17:26	376632	N
17:26	376850	N
17:27	377111	N
17:27	377245	V
17:28	377475	N
17:29	377715	N
17:29	377944	V
17:30	378162	N
17:30	378278	V
17:31	378529	N
17:32	378813	N
17:33	379104	N
17:33	379374	N
17:34	379560	N
17:35	379814	N
17:35	380044	F
17:36	380261	N
17:36	380510	N
17:37	380806	N
17:38	380954	a
17:38	381191	N
17:39	381438	N
17:40	381698	N
17:40	381926	N
17:41	382115	N
17:42	382353	N
17:42	382613	N
17:43	382883	N
17:44	383197	N
17:45	383482	N
17:45	383740	N
17:46	384012	N
17:47	384278	N
17:48	384528	N
17:48	384754	N
17:49	384951	N
17:49	385192	N
17:50	385458	N
17:51	385715	N
17:52	386039	N
17:53	386380	N
17:53	386624	N
17:54	386864	N
17:55	387120	N
17:56	387407	N
17:56	387689	V
17:57	387941	N
17:58	388201	N
17:58	388393	V
17:59	388698	F
18:00	388959	N
18:01	389195	N
18:01	389350	V
18:02	389687	N
18:02	389830	+
18:02	389865	V
18:03	390011	V
18:03	390238	V
18:04	390493	V
18:04	390598	V
18:05	390790	V
18:05	390958	+
18:06	391087	N
18:06	391243	V
18:07	391610	N
18:08	391773	V
18:08	392027	N
18:09	392297	N
18:10	392580	N
18:10	392699	+
18:11	392818	V
18:11	393094	N
18:12	393320	V
18:13	393636	N
18:14	393891	V
18:14	394037	+
18:14	394183	N
18:15	394440	F
18:16	394669	N
18:17	394927	N
18:17	395177	N
18:18	395434	V
18:19	395675	N
18:19	395906	N
18:20	396198	N
18:21	396466	F
18:21	396707	N
18:22	396935	N
18:22	397020	+
18:23	397105	V
18:23	397332	N
18:24	397530	V
18:25	397806	N
18:25	397989	V
18:26	398307	N
18:26	398467	V
18:27	398678	V
18:28	399003	N
18:28	399168	V
18:29	399289	V
18:30	399600	N
18:30	399852	V
18:31	400224	N
18:32	400396	V
18:32	400544	+
18:33	400692	N
18:33	401037	N
18:34	401310	N
18:35	401571	N
18:35	401713	V
18:36	401939	N
18:37	402175	N
18:37	402468	N
18:38	402760	N
18:39	403016	N
18:40	403278	N
18:40	403546	N
18:41	403776	N
18:42	404015	N
18:42	404217	N
18:43	404442	N
18:44	404733	N
18:45	405005	N
18:45	405274	N
18:46	405546	N
18:47	405826	N
18:47	406028	N
18:48	406270	N
18:49	406553	N
18:50	406822	N
18:51	407160	N
18:51	407382	N
18:52	407599	N
18:52	407801	N
18:53	408008	N
18:54	408299	N
18:54	408589	N
18:55	408822	N
18:56	409046	N
18:56	409307	F
18:57	409571	N
18:58	409801	N
18:59	410070	N
18:59	410325	N
19:00	410604	N
19:01	410883	N
19:01	411111	N
19:02	411341	N
19:02	411472	V
19:03	411749	N
19:04	412020	N
19:05	412302	N
19:05	412511	N
19:06	412814	N
19:07	413092	N
19:08	413309	N
19:08	413523	N
19:09	413796	N
19:10	414054	N
19:10	414320	N
19:11	414563	N
19:12	414785	N
19:12	415027	N
19:13	415237	N
19:14	415519	N
19:14	415770	N
19:15	415972	N
19:16	416202	N
19:16	416469	N
19:17	416704	N
19:18	416941	N
19:18	417058	a
19:19	417389	N
19:20	417641	N
19:20	417944	N
19:21	418179	N
19:22	418429	N
19:22	418555	V
19:23	418881	N
19:24	419142	N
19:24	419369	N
19:25	419598	N
19:26	419860	N
19:27	420120	N
19:27	420406	N
19:28	420653	N
19:29	420921	N
19:29	421163	N
19:30	421427	N
19:31	421738	N
19:32	421956	N
19:32	422233	N
19:33	422508	N
19:34	422763	N
19:35	423054	N
19:35	423328	N
19:36	423577	N
19:37	423859	N
19:38	424131	N
19:38	424414	N
19:39	424611	N
19:40	424882	N
19:40	425141	N
19:41	425366	N
19:42	425584	N
19:42	425717	V
19:43	426024	N
19:43	426195	V
19:44	426533	V
19:45	426855	N
19:46	427101	N
19:47	427354	N
19:47	427604	N
19:48	427851	N
19:49	428091	N
19:49	428245	a
19:50	428575	N
19:51	428841	N
19:51	429092	N
19:52	429306	N
19:53	429515	N
19:53	429733	N
19:54	429927	N
19:54	430152	N
19:55	430446	N
19:56	430715	N
19:57	430999	N
19:58	431321	N
19:58	431548	N
19:59	431762	N
20:00	432001	N
20:00	432220	N
20:01	432539	N
20:02	432785	N
20:02	433057	N
20:03	433331	N
20:04	433604	N
20:05	433852	N
20:05	434086	N
20:06	434335	N
20:07	434616	N
20:08	434889	N
20:08	435090	V
20:09	435366	N
20:09	435572	N
20:10	435804	N
20:11	436038	N
20:11	436288	N
20:12	436416	V
20:12	436642	N
20:13	436880	N
20:14	437139	N
20:15	437404	N
20:15	437646	N
20:16	437895	N
20:17	438149	N
20:17	438402	N
20:18	438658	N
20:19	438879	N
20:19	439102	N
20:20	439390	N
20:21	439718	N
20:22	439939	N
20:22	440156	N
20:23	440367	N
20:23	440488	V
20:24	440797	N
20:25	441011	N
20:25	441263	N
20:26	441526	N
20:27	441759	N
20:27	442057	N
20:28	442303	N
20:29	442518	N
20:29	442748	N
20:30	443000	N
20:31	443254	N
20:31	443480	N
20:32	443738	N
20:33	443986	N
20:34	444257	N
20:34	444511	N
20:35	444747	N
20:35	444957	N
20:36	445158	N
20:37	445361	V
20:38	445714	N
20:38	445879	a
20:39	446167	N
20:39	446299	V
20:40	446552	N
20:41	446783	N
20:41	447003	N
20:42	447233	N
20:43	447485	N
20:43	447729	N
20:44	447976	N
20:45	448232	N
20:45	448514	N
20:46	448808	N
20:47	449075	N
20:48	449298	N
20:48	449529	N
20:49	449796	N
20:50	450084	N
20:50	450355	N
20:51	450579	N
20:52	450829	N
20:53	451241	N
20:54	451497	N
20:54	451716	N
20:55	451959	N
20:56	452202	N
20:56	452458	N
20:57	452729	N
20:58	452957	N
20:58	453216	N
20:59	453427	N
21:00	453683	N
21:00	453948	N
21:01	454242	N
21:02	454490	N
21:03	454685	V
21:03	454953	N
21:04	455191	N
21:05	455488	N
21:05	455648	a
21:05	455753	V
21:06	456104	N
21:07	456362	N
21:08	456737	N
21:09	456975	N
21:10	457201	N
21:10	457411	N
21:11	457617	N
21:11	457871	N
21:12	458106	N
21:13	458338	N
21:13	458555	N
21:14	458794	N
21:15	459029	N
21:15	459264	N
21:16	459495	N
21:16	459715	N
21:17	459912	N
21:18	460115	N
21:18	460237	V
21:19	460558	N
21:19	460750	N
21:20	461029	N
21:21	461297	N
21:22	461527	N
21:22	461784	N
21:23	461913	V
21:24	462275	N
21:24	462543	N
21:25	462688	V
21:25	462945	N
21:26	463209	N
21:27	463445	N
21:28	463719	N
21:28	463983	N
21:29	464247	N
21:30	464465	N
21:31	464777	N
21:31	465087	N
21:32	465302	N
21:33	465548	N
21:33	465816	N
21:34	466072	N
21:35	466343	N
21:35	466546	N
21:36	466778	N
21:37	467003	N
21:37	467248	N
21:38	467469	N
21:39	467716	N
21:39	467843	V
21:40	468105	N
21:41	468376	N
21:41	468614	N
21:42	468855	N
21:43	469143	N
21:43	469438	N
21:44	469712	N
21:45	469978	N
21:46	470235	N
21:46	470473	N
21:47	470665	N
21:48	470885	N
21:48	471107	N
21:49	471340	N
21:49	471586	N
21:50	471880	N
21:51	472197	N
21:52	472424	N
21:52	472613	N
21:53	472822	N
21:54	473066	N
21:54	473288	N
21:55	473492	N
21:55	473753	N
21:56	474031	N
21:57	474267	N
21:58	474513	N
21:58	474747	N
21:59	474968	N
22:00	475209	N
22:00	475449	N
22:01	475666	N
22:01	475914	N
22:02	476170	N
22:03	476407	N
22:03	476614	N
22:04	476867	N
22:05	477100	N
22:05	477326	N
22:06	477681	N
22:07	477929	N
22:08	478246	N
22:09	478475	N
22:09	478725	N
22:10	478949	N
22:11	479199	N
22:11	479405	N
22:12	479636	N
22:12	479879	N
22:13	480213	N
22:14	480400	V
22:15	480673	N
22:16	481003	N
22:16	481267	N
22:17	481486	N
22:18	481704	N
22:18	481919	N
22:19	482120	N
22:19	482363	N
22:20	482664	N
22:21	482959	N
22:21	483107	V
22:22	483414	N
22:23	483579	V
22:24	483860	N
22:24	484073	N
22:25	484295	N
22:25	484515	N
22:26	484770	N
22:27	484994	N
22:28	485307	N
22:28	485578	N
22:29	485833	N
22:30	486066	N
22:30	486294	N
22:31	486571	N
22:32	486788	N
22:32	487046	N
22:33	487273	N
22:34	487538	N
22:34	487772	N
22:35	487995	N
22:36	488321	N
22:37	488538	N
22:37	488773	N
22:38	488993	N
22:39	489257	N
22:39	489488	N
22:40	489778	N
22:41	490037	N
22:41	490274	N
22:42	490504	N
22:43	490729	N
22:43	491011	N
22:44	491324	N
22:45	491663	N
22:46	491907	N
22:47	492177	N
22:47	492408	N
22:48	492786	V
22:49	493058	N
22:49	493184	V
22:50	493537	N
22:51	493802	N
22:52	494057	N
22:52	494278	N
22:53	494517	N
22:54	494765	N
22:54	494989	N
22:55	495199	N
22:56	495496	N
22:57	495852	N
22:58	496182	N
22:59	496449	N
22:59	496654	N
22:59	496792	V
23:00	497108	N
23:01	497348	N
23:02	497596	N
23:02	497850	N
23:03	497975	V
23:03	498226	N
23:04	498439	N
23:05	498713	N
23:05	498958	N
23:06	499208	N
23:07	499428	N
23:07	499635	N
23:08	499869	N
23:09	500097	N
23:09	500340	N
23:10	500606	N
23:11	500866	N
23:11	501116	N
23:12	501375	N
23:13	501570	N
23:13	501821	N
23:14	502087	N
23:15	502339	N
23:16	502562	N
23:16	502781	N
23:17	503029	N
23:17	503214	N
23:18	503422	N
23:19	503643	N
23:19	503879	N
23:20	504105	N
23:21	504365	N
23:21	504627	N
23:22	504857	N
23:23	505114	N
23:23	505402	N
23:24	505698	N
23:25	505899	N
23:25	506120	N
23:26	506381	N
23:27	506607	N
23:27	506829	N
23:28	506964	V
23:29	507339	N
23:29	507589	N
23:30	507816	N
23:31	508067	N
23:31	508275	N
23:32	508524	N
23:33	508787	N
23:34	509118	N
23:34	509358	N
23:35	509578	N
23:36	509794	N
23:36	510025	N
23:37	510274	N
23:38	510524	N
23:38	510791	N
23:39	511058	N
23:40	511305	N
23:40	511535	N
23:41	511765	N
23:42	511997	N
23:42	512187	N
23:43	512312	V
23:43	512557	N
23:44	512813	N
23:45	513063	N
23:45	513312	N
23:46	513605	N
23:47	513872	N
23:48	514210	N
23:49	514442	N
23:49	514713	N
23:50	514957	N
23:51	515219	N
23:51	515442	N
23:52	515565	V
23:52	515823	N
23:53	516035	N
23:54	516252	N
23:54	516459	N
23:55	516708	N
23:55	516938	N
23:56	517185	N
23:57	517431	N
23:58	517697	N
23:58	517947	N
23:59	518198	N
24:00	518419	N
24:00	518676	N
24:01	518947	N
24:02	519210	N
24:02	519422	N
24:03	519678	N
24:04	519941	N
24:04	520185	N
24:05	520435	N
24:06	520685	N
24:07	520938	N
24:07	521190	N
24:08	521473	N
24:09	521726	N
24:09	521962	N
24:10	522179	N
24:11	522385	N
24:11	522631	N
24:12	522882	N
24:13	523121	N
24:13	523387	N
24:14	523649	N
24:15	523882	N
24:15	524120	N
24:16	524451	N
24:17	524652	N
24:17	524839	V
24:18	525163	N
24:19	525393	N
24:20	525655	N
24:20	525913	N
24:21	526173	N
24:22	526421	N
24:22	526658	N
24:23	526875	N
24:24	527126	N
24:24	527365	N
24:25	527567	N
24:26	527863	N
24:26	528114	N
24:27	528378	N
24:28	528582	N
24:28	528825	N
24:29	529092	N
24:30	529316	N
24:30	529551	N
24:31	529749	N
24:32	530025	N
24:32	530253	N
24:33	530506	N
24:34	530715	N
24:34	530964	N
24:35	531222	N
24:36	531439	N
24:36	531646	N
24:37	531896	N
24:38	532172	N
24:38	532424	N
24:39	532713	N
24:40	532994	N
24:41	533222	N
24:41	533444	N
24:42	533686	N
24:43	533930	N
24:43	534183	N
24:44	534512	N
24:45	534751	N
24:46	534992	N
24:46	535280	N
24:47	535579	N
24:48	535817	N
24:48	536036	N
24:49	536251	N
24:50	536535	N
24:51	536794	N
24:51	537048	N
24:52	537313	N
24:53	537578	N
24:53	537814	N
24:54	538082	N
24:55	538305	N
24:56	538591	N
24:56	538851	N
24:57	539081	N
24:58	539355	N
24:58	539572	N
24:59	539817	N
25:00	540096	N
25:00	540323	N
25:01	540553	N
25:02	540782	N
25:02	541041	N
25:03	541302	N
25:04	541600	N
25:05	541814	N
25:05	542055	N
25:06	542254	N
25:06	542493	N
25:08	542889	N
25:08	543142	N
25:09	543382	N
25:10	543606	N
25:10	543850	N
25:11	544107	N
25:12	544455	N
25:13	544681	N
25:13	544895	N
25:13	545019	V
25:14	545384	N
25:15	545647	N
25:16	545871	N
25:17	546121	N
25:17	546419	N
25:18	546740	N
25:19	546959	N
25:20	547222	N
25:20	547523	N
25:21	547770	N
25:22	547996	N
25:22	548262	N
25:23	548523	N
25:24	548765	N
25:25	549023	N
25:25	549232	N
25:26	549486	N
25:26	549627	V
25:27	549899	N
25:28	550153	N
25:28	550395	N
25:29	550635	N
25:29	550753	V
25:30	551008	N
25:31	551247	N
25:32	551520	N
25:32	551825	N
25:33	552077	N
25:33	552204	V
25:34	552542	N
25:35	552852	N
25:36	553111	N
25:37	553374	N
25:37	553636	N
25:38	553839	N
25:39	554096	N
25:40	554403	N
25:40	554683	N
25:41	554917	N
25:42	555147	N
25:42	555413	N
25:43	555726	N
25:44	555995	N
25:45	556262	N
25:45	556515	N
25:46	556784	N
25:47	557062	N
25:48	557288	N
25:48	557568	N
25:49	557813	N
25:50	558071	N
25:50	558292	N
25:51	558513	N
25:52	558750	N
25:52	559030	N
25:53	559275	N
25:54	559542	N
25:54	559774	N
25:55	559996	N
25:56	560215	N
25:56	560478	N
25:57	560731	N
25:58	560991	N
25:58	561229	N
25:59	561433	N
26:00	561740	N
26:01	561987	N
26:01	562208	N
26:02	562484	N
26:02	562652	a
26:03	562959	N
26:04	563246	N
26:05	563490	N
26:05	563719	N
26:06	563955	N
26:07	564175	N
26:07	564461	N
26:08	564691	N
26:09	564902	N
26:09	565148	N
26:10	565350	N
26:11	565565	N
26:11	565878	N
26:12	566020	a
26:13	566435	N
26:14	566722	N
26:14	566988	N
26:15	567222	N
26:16	567439	N
26:16	567638	N
26:17	567862	N
26:17	567997	V
26:18	568232	N
26:19	568526	N
26:20	568872	N
26:20	569130	N
26:21	569396	N
26:22	569643	N
26:22	569865	N
26:23	570128	N
26:24	570384	N
26:25	570617	N
26:25	570846	N
26:26	571151	N
26:27	571395	N
26:27	571616	N
26:28	571887	N
26:28	572035	V
26:29	572292	N
26:30	572480	N
26:30	572712	N
26:31	572915	N
26:32	573173	N
26:32	573439	N
26:33	573701	N
26:34	574077	N
26:35	574332	N
26:36	574621	N
26:36	574889	N
26:37	575092	N
26:38	575336	N
26:39	575788	N
26:40	576113	N
26:40	576320	N
26:41	576527	N
26:42	576769	N
26:42	577043	N
26:43	577244	N
26:44	577543	N
26:45	577846	N
26:45	578102	N
26:46	578330	N
26:47	578591	N
26:47	578848	N
26:48	579070	N
26:49	579261	N
26:49	579521	N
26:50	579654	V
26:51	579999	N
26:51	580231	N
26:52	580477	N
26:53	580724	N
26:53	580926	N
26:54	581158	N
26:55	581447	N
26:55	581673	N
26:56	581921	N
26:57	582175	N
26:57	582456	N
26:58	582683	N
26:59	582881	N
26:59	583145	N
27:00	583280	V
27:00	583527	N
27:01	583758	N
27:02	584011	N
27:02	584275	N
27:03	584523	N
27:04	584726	V
27:05	585024	N
27:05	585261	N
27:06	585506	N
27:07	585740	N
27:07	585981	N
27:08	586237	N
27:09	586490	N
27:09	586733	N
27:10	586987	N
27:11	587245	N
27:11	587468	N
27:12	587677	N
27:13	587908	N
27:13	588111	N
27:14	588402	N
27:14	588546	a
27:15	588872	N
27:16	589033	V
27:16	589294	N
27:17	589581	N
27:18	589836	N
27:18	589959	a
27:19	590154	a
27:20	590420	N
27:20	590666	N
27:21	590906	N
27:22	591138	N
27:22	591353	N
27:23	591606	N
27:24	591884	N
27:24	592089	N
27:25	592339	N
27:25	592507	a
27:26	592778	N
27:27	593003	N
27:28	593287	N
27:28	593554	N
27:29	593833	N
27:30	594095	N
27:31	594361	N
27:31	594623	N
27:32	594877	N
27:33	595103	N
27:33	595383	N
27:34	595628	N
27:35	595866	N
27:36	596284	N
27:37	596585	N
27:37	596828	N
27:38	596913	+
27:38	596998	V
27:39	597243	N
27:39	597409	V
27:40	597740	N
27:40	597881	V
27:41	598041	+
27:41	598201	N
27:42	598422	N
27:42	598630	N
27:43	598744	V
27:43	599018	N
27:44	599166	V
27:45	599440	N
27:45	599675	N
27:46	599860	V
27:47	600218	N
27:47	600473	N
27:48	600694	N
27:49	600911	N
27:49	601163	N
27:50	601428	N
27:51	601680	N
27:51	601898	N
27:52	602132	N
27:52	602258	V
27:53	602523	N
27:54	602758	N
27:54	602983	N
27:55	603207	N
27:55	603335	V
27:56	603653	N
27:57	603944	N
27:58	604171	N
27:58	604434	N
27:59	604696	N
28:00	605011	N
28:01	605227	N
28:01	605447	N
28:02	605691	N
28:03	605940	N
28:03	606198	N
28:04	606442	N
28:05	606725	N
28:06	606984	N
28:06	607214	N
28:07	607427	N
28:07	607661	N
28:08	607913	N
28:09	608176	N
28:10	608410	N
28:10	608531	V
28:11	608876	N
28:11	609033	V
28:12	609367	N
28:13	609597	N
28:14	609933	N
28:14	610199	N
28:15	610449	N
28:16	610686	N
28:16	610892	N
28:17	611153	N
28:18	611370	N
28:18	611601	N
28:19	611845	N
28:20	612163	N
28:21	612441	N
28:21	612679	N
28:22	612906	N
28:23	613139	N
28:23	613351	N
28:24	613568	N
28:25	613817	N
28:25	614069	N
28:26	614276	N
28:27	614553	N
28:27	614823	N
28:28	615108	N
28:29	615288	V
28:29	615591	N
28:30	615809	N
28:31	616049	N
28:31	616305	N
28:32	616567	N
28:33	616825	N
28:34	617102	N
28:34	617318	N
28:35	617548	N
28:36	617786	N
28:36	618081	N
28:37	618332	N
28:38	618598	N
28:39	618865	N
28:39	619116	N
28:40	619383	N
28:41	619621	N
28:41	619822	N
28:42	620082	N
28:43	620346	N
28:43	620617	N
28:44	620912	N
28:45	621126	N
28:45	621351	N
28:46	621614	N
28:47	621847	N
28:48	622085	N
28:48	622309	N
28:49	622521	N
28:49	622786	N
28:50	623065	N
28:51	623347	N
28:52	623579	N
28:52	623786	N
28:53	623913	V
28:53	624164	N
28:54	624416	N
28:55	624635	N
28:56	625012	N
28:56	625298	N
28:57	625570	N
28:58	625776	N
28:58	626027	N
28:59	626262	N
29:00	626572	N
29:01	626808	N
29:01	627033	N
29:02	627311	N
29:03	627554	N
29:03	627817	N
29:04	628076	N
29:05	628329	N
29:05	628457	V
29:06	628792	N
29:07	629124	N
29:08	629401	N
29:08	629630	N
29:09	629875	N
29:10	630196	N
29:11	630490	N
29:12	630724	N
29:12	630949	N
29:13	631175	V
29:14	631460	N
29:14	631714	N
29:15	631942	N
29:16	632206	N
29:16	632362	V
29:17	632694	N
29:17	632856	V
29:18	633132	N
29:19	633270	a
29:20	633628	V
29:21	634129	E
29:21	634294	V
29:22	634622	F
29:23	634885	N
29:24	635092	N
29:24	635374	N
29:25	635596	V
29:26	635820	N
29:26	636076	N
29:27	636291	N
29:28	636552	N
29:28	636823	N
29:29	637057	V
29:30	637348	N
29:31	637580	V
29:31	637816	N
29:32	638061	N
29:33	638357	N
29:33	638575	N
29:34	638831	N
29:35	639084	V
29:36	639370	N
29:36	639579	N
29:37	639835	N
29:38	640086	N
29:38	640301	N
29:39	640515	N
29:39	640788	N
29:40	641046	N
29:41	641282	N
29:42	641523	N
29:42	641764	N
29:43	642011	V
29:44	642280	N
29:44	642509	N
29:45	642757	N
29:46	643032	V
29:46	643319	N
29:47	643562	V
29:48	643795	N
29:48	644017	N
29:49	644262	N
29:50	644411	a
29:50	644572	V
29:51	644828	N
29:51	644997	V
29:52	645282	N
29:53	645556	N
29:53	645811	N
29:54	646025	N
29:55	646260	N
29:55	646488	N
29:56	646774	N
29:57	646985	N
29:57	647236	N
29:58	647489	N
29:59	647672	V
29:59	647966	N
30:00	648244	N
30:01	648469	V
30:02	648745	N
30:02	648943	N
30:03	649216	N
30:04	649513	V
30:04	649758	N
30:05	649962	N
