0:00	214	R
0:01	451	R
0:01	696	R
0:02	924	R
0:03	1168	R
0:04	1440	R
0:04	1707	R
0:05	1953	R
0:06	2191	R
0:06	2397	R
0:07	2604	R
0:07	2826	R
0:08	3049	R
0:09	3280	R
0:09	3548	R
0:10	3789	R
0:11	4030	R
0:11	4278	R
0:12	4516	R
0:13	4754	R
0:13	4976	R
0:14	5199	R
0:15	5438	R
0:15	5680	R
0:16	5917	R
0:17	6161	R
0:17	6398	R
0:18	6630	R
0:19	6854	R
0:19	7091	R
0:20	7333	R
0:21	7570	R
0:21	7813	R
0:22	8068	R
0:23	8331	R
0:23	8571	R
0:24	8806	R
0:25	9049	R
0:25	9280	R
0:26	9506	R
0:27	9741	R
0:27	9992	R
0:28	10232	R
0:29	10478	R
0:29	10716	R
0:30	10943	R
0:31	11171	R
0:31	11402	R
0:32	11637	R
0:32	11868	R
0:33	12097	R
0:34	12335	R
0:34	12574	R
0:35	12809	R
0:36	13044	R
0:36	13276	R
0:37	13499	R
0:38	13731	R
0:38	13972	R
0:39	14220	R
0:40	14467	R
0:40	14727	R
0:41	14981	R
0:42	15224	R
0:42	15458	R
0:43	15699	R
0:44	15940	R
0:44	16177	R
0:45	16416	R
0:46	16669	R
0:47	16925	R
0:47	17166	R
0:48	17415	R
0:49	17661	R
0:49	17899	R
0:50	18118	R
0:50	18346	R
0:51	18591	R
0:52	18837	R
0:53	19080	R
0:53	19302	R
0:54	19516	R
0:54	19730	R
0:55	19936	R
0:55	20150	R
0:56	20386	R
0:57	20629	R
0:58	20880	R
0:58	21121	R
0:59	21363	R
1:00	21603	R
1:00	21830	R
1:01	22048	R
1:01	22264	R
1:02	22499	R
1:03	22761	N
1:03	23024	N
1:04	23276	N
1:05	23521	N
1:06	23770	N
1:06	24012	N
1:07	24255	N
1:08	24488	N
1:08	24718	N
1:09	24967	N
1:10	25231	N
1:10	25482	N
1:11	25726	N
1:12	25977	N
1:12	26223	N
1:13	26453	N
1:14	26691	N
1:14	26940	N
1:15	27188	N
1:16	27435	N
1:16	27691	N
1:17	27939	N
1:18	28178	N
1:18	28415	N
1:19	28650	N
1:20	28885	N
1:20	29119	N
1:21	29351	N
1:22	29590	N
1:22	29831	N
1:23	30080	N
1:24	30315	N
1:24	30543	N
1:25	30773	N
1:26	30996	N
1:26	31224	N
1:27	31465	N
1:28	31721	N
1:28	31971	N
1:29	32203	N
1:30	32427	N
1:30	32646	N
1:31	32869	N
1:31	33089	N
1:32	33313	N
1:33	33545	N
1:33	33785	N
1:34	34019	N
1:35	34261	N
1:35	34500	N
1:36	34730	N
1:37	34958	N
1:37	35189	N
1:38	35426	N
1:39	35658	N
1:39	35900	N
1:40	36153	N
1:41	36404	N
1:41	36626	N
1:42	36850	N
1:42	37069	N
1:43	37297	N
1:44	37533	N
1:44	37764	N
1:45	38011	N
1:46	38238	N
1:46	38458	N
1:47	38682	R
1:48	38907	R
1:48	39128	R
1:49	39349	R
1:49	39566	R
1:50	39807	R
1:51	40073	N
1:52	40345	N
1:52	40620	N
1:53	40883	N
1:54	41116	N
1:54	41340	N
1:55	41555	N
1:56	41772	N
1:56	42006	N
1:57	42269	N
1:58	42528	N
1:58	42793	N
1:59	43025	N
2:00	43251	N
2:00	43481	N
2:01	43708	N
2:02	43937	N
2:02	44196	N
2:03	44426	N
2:04	44678	N
2:04	44929	N
2:05	45168	N
2:06	45404	N
2:06	45627	N
2:07	45844	N
2:07	46063	N
2:08	46298	N
2:09	46537	N
2:09	46776	N
2:10	47014	N
2:11	47246	N
2:11	47454	N
2:12	47676	N
2:13	47913	N
2:13	48161	N
2:14	48401	N
2:15	48646	N
2:15	48892	N
2:16	49130	N
2:17	49365	N
2:17	49595	N
2:18	49810	N
2:18	50023	N
2:19	50237	N
2:20	50468	N
2:20	50718	N
2:21	50962	N
2:22	51205	N
2:22	51450	N
2:23	51694	N
2:24	51922	N
2:24	52154	N
2:25	52392	N
2:26	52610	N
2:26	52832	N
2:27	53060	N
2:28	53298	N
2:28	53533	N
2:29	53757	N
2:29	53984	N
2:30	54201	N
2:31	54412	N
2:31	54623	R
2:32	54844	R
2:32	55074	R
2:33	55303	R
2:34	55523	R
2:34	55743	R
2:35	55962	R
2:36	56175	R
2:36	56383	R
2:37	56585	R
2:37	56791	R
2:38	56987	R
2:38	57188	R
2:39	57397	R
2:40	57610	R
2:40	57834	R
2:41	58060	R
2:41	58279	R
2:42	58490	R
2:43	58696	R
2:43	58911	R
2:44	59134	R
2:44	59364	R
2:45	59590	R
2:46	59809	R
2:46	60035	R
2:47	60264	R
2:48	60481	R
2:48	60697	R
2:49	60909	R
2:49	61122	R
2:50	61342	R
2:51	61565	R
2:51	61796	R
2:52	62030	R
2:52	62265	R
2:53	62491	R
2:54	62711	R
2:54	62930	R
2:55	63150	R
2:56	63369	R
2:56	63598	R
2:57	63828	R
2:57	64058	R
2:58	64297	R
2:59	64527	R
2:59	64752	R
3:00	64975	R
3:01	65191	R
3:01	65408	R
3:02	65616	R
3:02	65838	R
3:03	66078	R
3:04	66318	R
3:04	66554	R
3:05	66787	R
3:06	67013	R
3:06	67231	R
3:07	67446	R
3:08	67681	R
3:08	67929	R
3:09	68175	R
3:10	68416	R
3:10	68662	R
3:11	68910	R
3:12	69147	R
3:12	69386	R
3:13	69634	R
3:14	69869	R
3:14	70105	R
3:15	70353	R
3:16	70606	R
3:16	70853	R
3:17	71100	R
3:18	71342	R
3:18	71581	R
3:19	71811	R
3:20	72046	R
3:20	72282	R
3:21	72520	R
3:22	72762	R
3:22	73011	R
3:23	73254	R
3:24	73492	R
3:24	73722	R
3:25	73944	R
3:26	74164	R
3:26	74384	R
3:27	74613	R
3:27	74853	R
3:28	75095	R
3:29	75342	R
3:29	75586	R
3:30	75817	R
3:31	76046	R
3:31	76270	R
3:32	76503	R
3:33	76746	R
3:33	76982	R
3:34	77219	R
3:35	77463	R
3:35	77696	R
3:36	77919	R
3:37	78145	R
3:37	78372	R
3:38	78596	R
3:38	78821	R
3:39	79054	R
3:40	79302	R
3:40	79544	R
3:41	79779	R
3:42	80013	R
3:42	80236	R
3:43	80461	R
3:44	80689	R
3:44	80916	R
3:45	81151	R
3:46	81387	R
3:46	81615	R
3:47	81848	R
3:47	82076	R
3:48	82298	R
3:49	82524	R
3:49	82749	R
3:50	82983	R
3:51	83208	R
3:51	83452	R
3:52	83707	R
3:53	83968	R
3:53	84210	R
3:54	84436	R
3:55	84669	R
3:55	84883	R
3:56	85101	R
3:57	85327	R
3:57	85560	R
3:58	85798	R
3:58	86030	R
3:59	86261	R
4:00	86492	R
4:00	86718	R
4:01	86947	R
4:02	87175	R
4:02	87413	R
4:03	87665	R
4:04	87910	R
4:04	88157	R
4:05	88405	R
4:06	88643	R
4:06	88865	R
4:07	89086	R
4:08	89307	R
4:08	89537	R
4:09	89773	R
4:10	90016	R
4:10	90256	R
4:11	90507	R
4:12	90743	R
4:12	90973	R
4:13	91206	R
4:13	91435	R
4:14	91670	R
4:15	91905	R
4:15	92147	R
4:16	92393	R
4:17	92641	R
4:17	92871	R
4:18	93098	R
4:19	93330	R
4:19	93559	R
4:20	93782	R
4:21	94014	R
4:21	94253	R
4:22	94495	R
4:23	94724	R
4:23	94955	R
4:24	95184	R
4:25	95403	R
4:25	95622	R
4:26	95851	R
4:26	96083	R
4:27	96318	R
4:28	96553	R
4:28	96793	R
4:29	97032	R
4:30	97264	R
4:30	97481	R
4:31	97696	R
4:31	97909	R
4:32	98124	R
4:33	98349	R
4:33	98581	R
4:34	98812	R
4:35	99056	R
4:35	99290	R
4:36	99517	R
4:37	99740	R
4:37	99963	R
4:38	100191	R
4:38	100410	R
4:39	100635	R
4:40	100877	R
4:40	101117	R
4:41	101347	R
4:42	101568	R
4:42	101785	R
4:43	102000	R
4:43	102217	R
4:44	102435	R
4:45	102658	R
4:45	102878	R
4:46	103101	R
4:47	103329	R
4:47	103555	R
4:48	103771	R
4:48	103982	R
4:49	104190	R
4:50	104415	R
4:50	104640	R
4:51	104871	R
4:51	105103	R
4:52	105335	R
4:53	105561	R
4:53	105775	R
4:54	105992	R
4:55	106210	R
4:55	106428	R
4:56	106649	R
4:56	106882	R
4:57	107110	R
4:58	107340	R
4:58	107569	R
4:59	107803	R
5:00	108018	R
5:00	108235	R
5:01	108457	R
5:01	108673	R
5:02	108891	R
5:03	109115	R
5:03	109347	R
5:04	109580	R
5:05	109812	R
5:05	110046	R
5:06	110284	R
5:06	110512	R
5:07	110740	R
5:08	110968	R
5:08	111204	R
5:09	111440	R
5:10	111683	R
5:10	111933	R
5:11	112196	N
5:12	112447	N
5:13	112687	N
5:13	112922	N
5:14	113146	N
5:14	113368	N
5:15	113599	N
5:16	113836	N
5:16	114072	N
5:17	114312	N
5:18	114550	N
5:18	114786	N
5:19	115013	N
5:20	115243	N
5:20	115481	N
5:21	115725	N
5:22	115969	N
5:22	116213	N
5:23	116458	N
5:24	116687	N
5:24	116910	N
5:25	117139	N
5:26	117372	N
5:26	117613	N
5:27	117855	N
5:28	118100	N
5:28	118342	N
5:29	118579	N
5:30	118808	N
5:30	119030	N
5:31	119246	N
5:31	119459	N
5:32	119676	N
5:33	119914	N
5:33	120161	N
5:34	120409	N
5:35	120648	N
5:35	120878	N
5:36	121109	N
5:37	121332	N
5:37	121553	N
5:38	121770	N
5:38	121994	N
5:39	122225	N
5:40	122455	N
5:40	122684	N
5:41	122924	N
5:42	123157	N
5:42	123375	N
5:43	123583	N
5:43	123814	N
5:44	124049	N
5:45	124274	N
5:45	124512	N
5:46	124754	N
5:47	124981	N
5:47	125208	N
5:48	125416	N
5:48	125624	R
5:49	125834	R
5:50	126040	R
5:50	126259	R
5:51	126493	R
5:52	126733	R
5:52	126975	R
5:53	127205	R
5:53	127429	R
5:54	127645	R
5:55	127858	R
5:55	128074	R
5:56	128288	R
5:56	128517	R
5:57	128760	R
5:58	128998	R
5:58	129236	R
5:59	129465	R
6:00	129683	R
6:00	129902	R
6:01	130115	R
6:02	130335	R
6:02	130561	R
6:03	130792	R
6:03	131032	R
6:04	131273	R
6:05	131521	R
6:06	131768	R
6:06	132007	R
6:07	132231	R
6:07	132452	R
6:08	132678	R
6:09	132905	R
6:09	133142	R
6:10	133382	R
6:11	133616	R
6:11	133850	R
6:12	134076	R
6:13	134301	R
6:13	134532	R
6:14	134771	R
6:15	135027	N
6:15	135273	N
6:16	135510	N
6:17	135740	N
6:17	135969	R
6:18	136190	R
6:18	136410	R
6:19	136625	R
6:20	136836	R
6:20	137056	R
6:21	137301	R
6:22	137551	R
6:22	137795	R
6:23	138035	R
6:24	138274	R
6:24	138504	R
6:25	138723	R
6:25	138947	R
6:26	139183	R
6:27	139413	R
6:27	139646	R
6:28	139886	R
6:29	140138	R
6:29	140373	R
6:30	140599	R
6:31	140820	R
6:31	141051	R
6:32	141282	R
6:33	141512	R
6:33	141762	R
6:34	142014	R
6:35	142255	R
6:35	142499	R
6:36	142743	R
6:37	142983	R
6:37	143215	R
6:38	143444	R
6:39	143672	R
6:39	143910	R
6:40	144155	R
6:41	144387	R
6:41	144613	R
6:42	144842	R
6:42	145070	R
6:43	145296	R
6:44	145521	R
6:44	145761	R
6:45	146018	R
6:46	146265	R
6:46	146506	R
6:47	146747	R
6:48	146979	R
6:48	147195	R
6:49	147416	R
6:50	147646	R
6:50	147885	R
6:51	148122	R
6:52	148361	R
6:52	148606	R
6:53	148843	R
6:54	149066	R
6:54	149286	R
6:55	149491	R
6:55	149697	R
6:56	149909	R
6:57	150126	R
6:57	150357	R
6:58	150587	R
6:58	150809	R
6:59	151035	R
7:00	151254	R
7:00	151466	R
7:01	151680	R
7:01	151895	R
7:02	152109	R
7:03	152318	R
7:03	152535	R
7:04	152761	R
7:04	152987	R
7:05	153210	R
7:06	153422	R
7:06	153633	R
7:07	153841	R
7:07	154048	R
7:08	154254	R
7:09	154472	R
7:09	154713	R
7:10	154956	R
7:11	155199	R
7:11	155431	R
7:12	155646	R
7:12	155856	R
7:13	156061	R
7:14	156266	R
7:14	156476	R
7:15	156684	R
7:15	156903	R
7:16	157123	R
7:17	157352	R
7:17	157582	R
7:18	157803	R
7:18	158023	R
7:19	158234	R
7:20	158452	R
7:20	158677	R
7:21	158904	R
7:22	159137	R
7:22	159369	R
7:23	159602	R
7:23	159828	R
7:24	160040	R
7:25	160252	R
7:25	160467	R
7:26	160682	R
7:26	160908	R
7:27	161128	R
7:28	161357	R
7:28	161591	R
7:29	161816	R
7:30	162039	R
7:30	162257	R
7:31	162471	R
7:31	162691	R
7:32	162905	R
7:33	163127	R
7:33	163358	R
7:34	163591	R
7:35	163820	R
7:35	164035	R
7:36	164255	R
7:36	164473	R
7:37	164687	R
7:38	164907	R
7:38	165132	R
7:39	165365	R
7:40	165605	R
7:40	165831	R
7:41	166061	R
7:41	166293	R
7:42	166512	R
7:43	166726	R
7:43	166942	R
7:44	167167	R
7:44	167398	R
7:45	167624	R
7:46	167867	R
7:46	168111	R
7:47	168342	R
7:48	168570	R
7:48	168794	R
7:49	169015	R
7:50	169238	R
7:50	169468	R
7:51	169715	R
7:52	169958	R
7:52	170198	R
7:53	170436	R
7:54	170670	R
7:54	170889	R
7:55	171103	R
7:55	171314	R
7:56	171527	R
7:57	171745	R
7:57	171981	R
7:58	172244	R
7:59	172508	R
7:59	172738	R
8:00	172955	R
8:01	173168	R
8:01	173377	R
8:02	173590	R
8:02	173817	R
8:03	174052	R
8:04	174299	R
8:04	174538	R
8:05	174782	R
8:06	175032	R
8:06	175262	R
8:07	175483	R
8:08	175703	R
8:08	175934	R
8:09	176166	R
8:10	176407	R
8:10	176649	R
8:11	176889	R
8:12	177135	R
8:12	177368	R
8:13	177601	R
8:13	177832	R
8:14	178064	R
8:15	178301	R
8:15	178536	R
8:16	178770	R
8:17	179005	R
8:17	179236	R
8:18	179457	R
8:19	179681	R
8:19	179916	R
8:20	180151	R
8:21	180392	R
8:21	180645	R
8:22	180884	R
8:23	181120	R
8:23	181345	R
8:24	181567	R
8:24	181785	R
8:25	181996	R
8:26	182211	R
8:26	182438	R
8:27	182669	R
8:28	182903	R
8:28	183145	R
8:29	183395	R
8:30	183633	R
8:30	183865	R
8:31	184076	R
8:31	184285	R
8:32	184496	R
8:33	184706	R
8:33	184922	R
8:34	185140	R
8:34	185368	R
8:35	185592	R
8:36	185817	R
8:36	186060	R
8:37	186317	N
8:38	186559	N
8:38	186809	N
8:39	187054	N
8:40	187293	N
8:40	187535	N
8:41	187786	N
8:42	188020	N
8:42	188256	N
8:43	188477	N
8:44	188712	N
8:44	188975	N
8:45	189246	N
8:46	189507	N
8:47	189768	N
8:47	190018	N
8:48	190277	N
8:49	190523	N
8:49	190756	N
8:50	190988	N
8:51	191220	N
8:51	191461	N
8:52	191700	N
8:53	191946	N
8:53	192199	N
8:54	192450	N
8:55	192695	N
8:55	192927	N
8:56	193161	N
8:57	193400	N
8:57	193652	N
8:58	193891	N
8:59	194125	N
8:59	194359	N
9:00	194598	N
9:01	194846	N
9:01	195095	N
9:02	195334	N
9:03	195565	N
9:03	195796	N
9:04	196031	N
9:05	196263	N
9:05	196487	N
9:06	196714	N
9:07	196947	N
9:07	197169	N
9:08	197394	N
9:08	197633	N
9:09	197889	N
9:10	198141	N
9:11	198388	N
9:11	198621	N
9:12	198844	N
9:12	199056	N
9:13	199265	N
9:14	199482	N
9:14	199705	N
9:15	199931	N
9:15	200155	R
9:16	200393	R
9:17	200641	R
9:18	200888	R
9:18	201119	R
9:19	201349	R
9:19	201557	R
9:20	201765	R
9:21	201978	R
9:21	202193	R
9:22	202418	R
9:22	202646	R
9:23	202869	R
9:24	203089	R
9:24	203310	R
9:25	203539	R
9:26	203774	R
9:26	204009	R
9:27	204248	R
9:28	204488	R
9:28	204731	R
9:29	204967	R
9:29	205194	R
9:30	205420	R
9:31	205640	R
9:31	205856	R
9:32	206082	R
9:33	206313	R
9:33	206561	R
9:34	206808	R
9:35	207041	R
9:35	207267	R
9:36	207479	R
9:36	207685	R
9:37	207896	R
9:38	208102	R
9:38	208318	R
9:39	208544	R
9:39	208772	R
9:40	209013	R
9:41	209252	R
9:41	209501	R
9:42	209733	R
9:43	209954	R
9:43	210168	R
9:44	210389	R
9:45	210615	R
9:45	210844	R
9:46	211081	R
9:46	211316	R
9:47	211544	R
9:48	211762	R
9:48	211971	R
9:49	212188	R
9:50	212409	R
9:50	212627	R
9:51	212852	R
9:51	213085	R
9:52	213325	R
9:53	213559	R
9:53	213785	R
9:54	214010	R
9:55	214226	R
9:55	214447	R
9:56	214684	R
9:57	214922	R
9:57	215155	R
9:58	215388	R
9:58	215610	R
9:59	215836	R
10:00	216051	R
10:00	216266	R
10:01	216491	R
10:02	216724	R
10:02	216958	R
10:03	217197	R
10:03	217434	R
10:04	217666	R
10:05	217898	R
10:05	218133	R
10:06	218355	R
10:07	218575	R
10:07	218792	R
10:08	219021	R
10:09	219250	R
10:09	219487	R
10:10	219734	R
10:11	219982	R
10:11	220216	R
10:12	220445	R
10:12	220667	R
10:13	220890	R
10:14	221109	R
10:14	221336	R
10:15	221579	R
10:16	221820	R
10:16	222063	R
10:17	222299	R
10:18	222537	R
10:18	222773	R
10:19	223000	R
10:20	223223	R
10:20	223450	R
10:21	223700	R
10:22	223954	R
10:22	224195	R
10:23	224431	R
10:24	224655	R
10:24	224872	R
10:25	225093	R
10:25	225323	R
10:26	225554	R
10:27	225787	R
10:27	226017	R
10:28	226248	R
10:29	226483	R
10:29	226716	R
10:30	226939	R
10:30	227158	R
10:31	227376	R
10:32	227607	R
10:32	227838	R
10:33	228067	R
10:34	228300	R
10:34	228535	R
10:35	228757	R
10:36	228975	R
10:36	229182	R
10:37	229388	R
10:37	229602	R
10:38	229830	R
10:39	230071	R
10:39	230303	R
10:40	230536	R
10:41	230785	R
10:41	231030	R
10:42	231265	R
10:43	231490	R
10:43	231701	R
10:44	231911	R
10:44	232122	R
10:45	232341	R
10:46	232561	R
10:46	232770	R
10:47	232978	R
10:47	233175	R
10:48	233373	R
10:48	233576	R
10:49	233784	R
10:50	234003	R
10:50	234219	R
10:51	234451	R
10:51	234687	R
10:52	234920	R
10:53	235152	R
10:53	235384	R
10:54	235610	R
10:55	235825	R
10:55	236048	R
10:56	236285	R
10:57	236524	R
10:57	236758	R
10:58	236999	R
10:59	237241	R
10:59	237475	R
11:00	237702	R
11:00	237923	R
11:01	238145	R
11:02	238375	R
11:02	238607	R
11:03	238844	R
11:04	239087	R
11:04	239331	R
11:05	239577	R
11:06	239801	R
11:06	240022	R
11:07	240248	R
11:07	240463	R
11:08	240682	R
11:09	240903	R
11:09	241134	R
11:10	241371	R
11:11	241601	R
11:11	241832	R
11:12	242053	R
11:12	242271	R
11:13	242494	R
11:14	242715	R
11:14	242943	R
11:15	243196	R
11:16	243449	R
11:16	243695	R
11:17	243929	R
11:18	244153	R
11:18	244368	R
11:19	244573	R
11:19	244775	R
11:20	244981	R
11:21	245198	R
11:21	245428	R
11:22	245667	R
11:23	245910	R
11:23	246147	R
11:24	246379	R
11:25	246612	R
11:25	246848	R
11:26	247088	R
11:27	247328	R
11:27	247566	R
11:28	247796	R
11:28	248029	R
11:29	248257	R
11:30	248476	R
11:30	248700	R
11:31	248925	R
11:32	249140	R
11:32	249372	R
11:33	249616	R
11:34	249862	R
11:34	250102	R
11:35	250328	R
11:35	250546	R
11:36	250752	R
11:37	250950	R
11:37	251152	R
11:38	251358	R
11:38	251579	R
11:39	251841	R
11:40	252112	N
11:40	252274	~
11:41	252371	N
11:41	252607	N
11:42	252720	~
11:42	252841	N
11:42	253069	N
11:43	253293	N
11:44	253504	N
11:44	253727	N
11:45	253965	N
11:46	254212	N
11:46	254454	N
11:47	254706	N
11:48	254956	N
11:48	255216	N
11:49	255465	N
11:50	255716	N
11:51	255965	N
11:51	256209	N
11:52	256444	N
11:53	256685	N
11:53	256926	N
11:54	257157	N
11:54	257380	N
11:55	257617	N
11:56	257857	N
11:56	258095	N
11:57	258336	N
11:58	258585	N
11:58	258833	N
11:59	259069	N
12:00	259295	N
12:00	259515	N
12:01	259731	N
12:02	259948	N
12:02	260173	N
12:03	260412	N
12:04	260643	N
12:04	260873	N
12:05	261105	N
12:05	261345	N
12:06	261597	N
12:07	261828	N
12:07	262052	N
12:08	262281	N
12:09	262524	N
12:09	262786	N
12:10	263056	N
12:11	263310	N
12:12	263539	N
12:12	263764	N
12:13	263988	N
12:13	264211	N
12:14	264433	N
12:15	264651	N
12:15	264874	R
12:16	265101	R
12:17	265326	R
12:17	265546	R
12:18	265765	R
12:18	265977	R
12:19	266186	R
12:19	266398	R
12:20	266620	R
12:21	266860	R
12:21	267109	R
12:22	267348	R
12:23	267585	R
12:23	267804	R
12:24	268016	R
12:25	268225	R
12:25	268433	R
12:26	268652	R
12:26	268870	R
12:27	269088	R
12:28	269309	R
12:28	269531	R
12:29	269754	R
12:29	269981	R
12:30	270197	R
12:31	270404	R
12:31	270614	R
12:32	270829	R
12:32	271048	R
12:33	271274	R
12:34	271522	R
12:34	271757	R
12:35	271994	R
12:36	272221	R
12:36	272430	R
12:37	272635	R
12:37	272841	R
12:38	273051	R
12:39	273260	R
12:39	273474	R
12:40	273680	R
12:40	273889	R
12:41	274105	R
12:41	274315	R
12:42	274552	R
12:43	274805	R
12:44	275059	N
12:44	275294	N
12:45	275530	N
12:46	275772	N
12:46	276013	N
12:47	276246	N
12:47	276463	N
12:48	276682	N
12:49	276900	N
12:49	277119	N
12:50	277342	N
12:51	277586	N
12:51	277860	N
12:52	278124	N
12:53	278381	N
12:53	278626	N
12:54	278851	N
12:55	279063	N
12:55	279278	N
12:56	279492	N
12:56	279710	N
12:57	279939	N
12:58	280185	N
12:59	280454	N
12:59	280718	N
13:00	280961	N
13:01	281205	N
13:01	281447	N
13:02	281686	N
13:03	281932	N
13:03	282185	N
13:04	282438	N
13:05	282676	N
13:05	282919	N
13:06	283161	N
13:07	283398	N
13:07	283629	N
13:08	283864	N
13:09	284101	N
13:09	284341	N
13:10	284590	N
13:11	284837	N
13:11	285078	N
13:12	285298	N
13:13	285526	N
13:13	285759	N
13:14	285988	N
13:15	286221	N
13:15	286465	N
13:16	286698	N
13:17	286936	N
13:17	287162	N
13:18	287395	N
13:18	287632	N
13:19	287864	N
13:20	288087	N
13:20	288306	N
13:21	288535	N
13:22	288767	N
13:22	289003	N
13:23	289237	N
13:24	289475	N
13:24	289720	N
13:25	289948	N
13:26	290172	N
13:26	290410	N
13:27	290648	N
13:28	290887	N
13:28	291116	N
13:29	291349	N
13:29	291575	N
13:30	291790	R
13:31	292001	R
13:31	292209	R
13:32	292409	R
13:32	292617	R
13:33	292828	R
13:34	293055	R
13:34	293288	R
13:35	293513	R
13:35	293736	R
13:36	293953	R
13:37	294166	R
13:37	294382	R
13:38	294601	R
13:38	294829	R
13:39	295057	R
13:40	295285	R
13:40	295524	R
13:41	295756	R
13:42	295982	R
13:42	296213	R
13:43	296439	R
13:44	296657	R
13:44	296876	R
13:45	297105	R
13:45	297344	R
13:46	297584	R
13:47	297818	R
13:47	298047	R
13:48	298277	R
13:49	298497	R
13:49	298715	R
13:50	298946	R
13:51	299184	R
13:51	299428	R
13:52	299657	R
13:53	299892	R
13:53	300125	R
13:54	300352	R
13:54	300573	R
13:55	300797	R
13:56	301016	R
13:56	301243	R
13:57	301472	R
13:58	301710	R
13:58	301947	R
13:59	302181	R
14:00	302405	R
14:00	302620	R
14:01	302838	R
14:01	303054	R
14:02	303277	R
14:03	303525	R
14:03	303781	R
14:04	304037	R
14:05	304275	R
14:05	304503	R
14:06	304723	R
14:07	304938	R
14:07	305154	R
14:08	305373	R
14:08	305609	R
14:09	305863	R
14:10	306126	R
14:11	306383	R
14:11	306630	R
14:12	306875	R
14:13	307108	R
14:13	307338	R
14:14	307572	R
14:15	307806	R
14:15	308048	R
14:16	308290	R
14:17	308529	R
14:17	308769	R
14:18	309003	R
14:19	309242	R
14:19	309470	R
14:20	309698	R
14:20	309928	R
14:21	310170	R
14:22	310415	R
14:22	310654	R
14:23	310893	R
14:24	311120	R
14:24	311347	R
14:25	311573	R
14:26	311797	R
14:26	312024	R
14:27	312261	R
14:28	312493	R
14:28	312724	R
14:29	312957	R
14:29	313190	R
14:30	313413	R
14:31	313631	R
14:31	313852	R
14:32	314080	R
14:33	314309	R
14:33	314540	R
14:34	314789	R
14:35	315038	R
14:35	315276	R
14:36	315497	R
14:36	315710	R
14:37	315927	R
14:38	316152	R
14:38	316376	R
14:39	316611	R
14:40	316846	R
14:40	317097	R
14:41	317357	R
14:42	317597	R
14:42	317835	R
14:43	318066	R
14:44	318286	R
14:44	318506	R
14:45	318728	R
14:46	318960	R
14:46	319210	R
14:47	319455	R
14:48	319685	R
14:48	319902	R
14:49	320120	R
14:49	320349	R
14:50	320590	R
14:51	320844	R
14:51	321102	R
14:52	321355	R
14:53	321591	R
14:53	321825	R
14:54	322058	R
14:55	322298	R
14:55	322540	R
14:56	322777	R
14:56	322901	|
14:57	323020	R
14:57	323260	R
14:58	323494	R
14:59	323724	R
14:59	323957	R
15:00	324188	R
15:01	324411	R
15:01	324628	R
15:02	324849	R
15:03	325094	R
15:03	325350	R
15:04	325608	R
15:05	325850	R
15:05	326083	R
15:06	326306	R
15:07	326529	R
15:07	326758	R
15:08	326993	R
15:08	327239	R
15:09	327479	R
15:10	327733	R
15:11	327995	R
15:11	328242	R
15:12	328479	R
15:13	328701	R
15:13	328921	R
15:14	329145	R
15:14	329388	R
15:15	329648	R
15:16	329904	R
15:17	330152	R
15:17	330390	R
15:18	330622	R
15:19	330850	R
15:19	331069	R
15:20	331287	R
15:20	331515	R
15:21	331764	R
15:22	332017	R
15:23	332280	R
15:23	332536	R
15:24	332765	R
15:24	332995	R
15:25	333225	R
15:26	333456	R
15:26	333701	R
15:27	333939	R
15:28	334169	R
15:28	334404	R
15:29	334637	R
15:30	334862	R
15:30	335093	R
15:31	335324	R
15:32	335552	R
15:32	335782	R
15:33	336022	R
15:34	336280	R
15:34	336550	R
15:35	336798	R
15:36	337030	R
15:36	337257	R
15:37	337477	R
15:38	337691	R
15:38	337913	R
15:39	338137	R
15:39	338361	R
15:40	338591	R
15:41	338828	R
15:41	339083	R
15:42	339335	R
15:43	339578	R
15:43	339809	R
15:44	340040	R
15:45	340277	R
15:45	340518	R
15:46	340768	R
15:47	341020	R
15:47	341267	R
15:48	341491	R
15:49	341706	R
15:49	341929	R
15:50	342166	R
15:51	342412	R
15:51	342663	R
15:52	342909	R
15:53	343158	R
15:53	343405	R
15:54	343652	R
15:55	343891	R
15:55	344123	R
15:56	344346	R
15:57	344566	R
15:57	344800	R
15:58	345053	R
15:59	345301	R
15:59	345549	R
16:00	345785	R
16:01	346020	R
16:01	346258	R
16:02	346501	R
16:03	346752	R
16:03	346986	R
16:04	347226	R
16:05	347461	R
16:05	347701	R
16:06	347929	R
16:07	348149	R
16:07	348377	R
16:08	348624	R
16:09	348887	N
16:09	349155	N
16:10	349414	N
16:11	349664	N
16:11	349903	N
16:12	350139	N
16:13	350363	N
16:13	350590	N
16:14	350831	N
16:15	351092	N
16:16	351364	N
16:16	351646	N
16:17	351898	N
16:18	352145	N
16:18	352389	N
16:19	352633	N
16:20	352857	N
16:20	353079	N
16:21	353314	N
16:22	353559	N
16:22	353814	N
16:23	354059	N
16:24	354306	N
16:24	354574	N
16:25	354846	N
16:26	355108	N
16:27	355353	N
16:27	355598	N
16:28	355837	N
16:29	356069	N
16:29	356307	N
16:30	356539	N
16:31	356769	N
16:31	357016	N
16:32	357276	N
16:33	357544	N
16:33	357799	N
16:34	358068	N
16:35	358341	N
16:36	358597	N
16:36	358844	N
16:37	359066	N
16:38	359291	N
16:38	359531	N
16:39	359772	N
16:40	360015	N
16:40	360255	N
16:41	360499	N
16:42	360741	N
16:42	360985	N
16:43	361217	N
16:44	361457	N
16:44	361713	N
16:45	361965	N
16:46	362216	N
16:46	362482	N
16:47	362738	N
16:48	362972	N
16:48	363197	N
16:49	363436	N
16:50	363672	N
16:50	363907	N
16:51	364144	N
16:52	364384	N
16:52	364632	N
16:53	364865	N
16:54	365098	N
16:54	365326	N
16:55	365562	N
16:56	365807	N
16:56	366045	N
16:57	366277	N
16:58	366511	N
16:58	366745	R
16:59	366972	R
16:59	367191	R
17:00	367393	R
17:01	367592	R
17:01	367801	R
17:02	368029	R
17:02	368266	R
17:03	368511	R
17:04	368754	R
17:04	368992	R
17:05	369225	R
17:06	369447	R
17:06	369670	R
17:07	369877	R
17:08	370087	R
17:08	370316	R
17:09	370546	R
17:09	370789	R
17:10	371046	R
17:11	371296	R
17:12	371537	R
17:12	371760	R
17:13	371999	R
17:14	372242	R
17:14	372493	R
17:15	372747	R
17:16	373000	R
17:16	373238	R
17:17	373460	R
17:17	373678	R
17:18	373890	R
17:19	374097	R
17:19	374305	R
17:20	374525	R
17:21	374761	R
17:21	375008	R
17:22	375246	R
17:23	375486	R
17:23	375735	R
17:24	375964	R
17:24	376184	R
17:25	376404	R
17:26	376622	R
17:26	376842	R
17:27	377067	R
17:28	377298	R
17:28	377526	R
17:29	377757	R
17:29	377989	R
17:30	378222	R
17:31	378453	R
17:31	378679	R
17:32	378908	R
17:33	379137	R
17:33	379377	R
17:34	379627	R
17:35	379867	R
17:35	380105	R
17:36	380335	R
17:37	380556	R
17:37	380775	R
17:38	380993	R
17:38	381221	R
17:39	381461	R
17:40	381692	R
17:40	381920	R
17:41	382148	R
17:42	382377	R
17:42	382596	R
17:43	382807	R
17:43	383020	R
17:44	383243	R
17:45	383474	R
17:45	383704	R
17:46	383942	R
17:47	384186	R
17:47	384424	R
17:48	384665	R
17:49	384901	R
17:49	385128	R
17:50	385346	R
17:51	385560	R
17:51	385778	R
17:52	385990	R
17:52	386203	R
17:53	386428	R
17:54	386650	R
17:54	386872	R
17:55	387102	R
17:55	387329	R
17:56	387560	R
17:57	387788	R
17:57	388023	R
17:58	388268	R
17:59	388508	R
17:59	388738	R
18:00	388959	R
18:01	389178	R
18:01	389397	R
18:02	389617	R
18:02	389841	R
18:03	390074	R
18:04	390309	R
18:04	390541	R
18:05	390771	R
18:06	391001	R
18:06	391224	R
18:07	391447	R
18:07	391664	R
18:08	391887	R
18:09	392121	R
18:09	392349	R
18:10	392585	R
18:11	392812	R
18:11	393026	R
18:12	393238	R
18:12	393453	R
18:13	393668	R
18:14	393890	R
18:14	394117	R
18:15	394353	R
18:16	394582	R
18:16	394823	R
18:17	395074	R
18:18	395314	R
18:18	395548	R
18:19	395794	R
18:20	396047	N
18:20	396294	N
18:21	396545	N
18:22	396804	N
18:22	397052	N
18:23	397316	N
18:24	397563	N
18:25	397808	N
18:25	398041	N
18:26	398271	N
18:26	398517	N
18:27	398786	N
18:28	399052	N
18:29	399302	N
18:29	399544	N
18:30	399787	N
18:31	400023	N
18:31	400073	~
18:31	400260	N
18:32	400481	N
18:33	400706	N
18:33	400946	N
18:34	401195	N
18:35	401445	N
18:35	401701	N
18:36	401859	~
18:36	401950	N
18:37	402187	N
18:37	402416	N
18:38	402654	N
18:39	402894	N
18:39	403139	N
18:40	403373	N
18:41	403615	N
18:41	403862	N
18:42	404102	N
18:43	404337	N
18:43	404576	N
18:44	404809	N
18:44	404855	~
18:45	405040	N
18:45	405279	N
18:46	405526	N
18:47	405767	N
18:47	406002	N
18:48	406230	N
18:48	406365	~
18:49	406455	N
18:49	406683	N
18:50	406915	N
18:51	407160	N
18:51	407416	N
18:52	407661	N
18:53	407908	N
18:53	408154	N
18:54	408404	N
18:55	408643	N
18:55	408875	N
18:56	409099	N
18:57	409329	N
18:57	409568	N
18:58	409802	N
18:59	410043	N
18:59	410281	N
19:00	410509	N
19:00	410744	N
19:01	410979	N
19:02	411218	N
19:02	411472	N
19:03	411725	N
19:04	411970	N
19:05	412214	N
19:05	412454	N
19:06	412681	N
19:06	412907	N
19:07	413136	N
19:08	413365	N
19:08	413597	N
19:09	413838	N
19:10	414093	N
19:10	414354	N
19:11	414600	N
19:12	414836	N
19:12	415074	N
19:13	415305	N
19:14	415535	N
19:14	415772	N
19:15	416022	N
19:16	416267	N
19:16	416515	N
19:17	416757	N
19:18	417005	N
19:19	417241	N
19:19	417476	N
19:20	417711	N
19:20	417955	N
19:21	418212	N
19:22	418466	N
19:23	418705	N
19:23	418935	N
19:24	419157	N
19:24	419370	R
19:25	419582	R
19:26	419804	R
19:26	420027	R
19:27	420259	R
19:28	420497	R
19:28	420747	R
19:29	420996	R
19:30	421230	R
19:30	421467	R
19:31	421699	R
19:32	421920	R
19:32	422139	R
19:33	422362	R
19:33	422597	R
19:34	422835	R
19:35	423068	R
19:35	423296	R
19:36	423518	R
19:37	423743	R
19:37	423969	R
19:38	424205	R
19:39	424447	R
19:39	424686	R
19:40	424935	R
19:41	425178	R
19:41	425424	R
19:42	425659	R
19:43	425886	R
19:43	426109	R
19:44	426330	R
19:44	426559	R
19:45	426795	R
19:46	427050	R
19:46	427298	R
19:47	427544	R
19:48	427787	R
19:48	428025	R
19:49	428259	R
19:50	428497	R
19:50	428733	R
19:51	428975	R
19:52	429217	R
19:52	429462	R
19:53	429711	R
19:54	429953	R
19:54	430196	R
19:55	430437	R
19:56	430678	R
19:56	430915	R
19:57	431170	R
19:58	431429	R
19:59	431674	R
19:59	431904	R
20:00	432124	R
20:00	432337	R
20:01	432553	R
20:02	432776	R
20:02	433007	R
20:03	433253	R
20:04	433506	R
20:04	433746	R
20:05	433993	R
20:06	434237	R
20:06	434457	R
20:07	434675	R
20:08	434894	R
20:08	435123	R
20:09	435358	R
20:09	435593	R
20:10	435839	R
20:11	436096	R
20:12	436331	R
20:12	436562	R
20:13	436799	R
20:14	437043	R
20:14	437284	R
20:15	437537	R
20:16	437793	R
20:16	438045	R
20:17	438300	R
20:18	438550	R
20:18	438790	R
20:19	439025	R
20:20	439258	R
20:20	439494	R
20:21	439733	R
20:22	439990	R
20:22	440251	R
20:23	440504	R
20:24	440737	R
20:24	440977	R
20:25	441216	R
20:26	441448	R
20:26	441687	R
20:27	441944	R
20:28	442191	R
20:28	442434	R
20:29	442684	R
20:30	442927	R
20:31	443161	R
20:31	443392	R
20:32	443626	R
20:32	443873	R
20:33	444122	R
20:34	444374	R
20:35	444633	R
20:35	444887	R
20:36	445123	R
20:37	445353	R
20:37	445578	R
20:38	445805	R
20:38	446025	R
20:39	446251	R
20:40	446475	R
20:40	446708	R
20:41	446953	R
20:42	447182	R
20:42	447404	R
20:43	447635	R
20:44	447862	R
20:44	448091	R
20:45	448324	R
20:46	448574	R
20:46	448830	R
20:47	449073	R
20:48	449311	R
20:48	449548	R
20:49	449789	R
20:50	450016	R
20:50	450252	R
20:51	450495	R
20:52	450736	R
20:52	450977	R
20:53	451218	R
20:54	451459	R
20:54	451698	R
20:55	451930	R
20:56	452169	R
20:56	452403	R
20:57	452641	R
20:58	452881	R
20:58	453128	R
20:59	453369	R
20:59	453597	R
21:00	453826	R
21:01	454051	R
21:01	454282	R
21:02	454521	R
21:03	454765	R
21:03	455009	R
21:04	455252	R
21:05	455500	R
21:05	455742	R
21:06	455978	R
21:07	456209	R
21:07	456437	R
21:08	456672	R
21:09	456903	R
21:09	457151	R
21:10	457400	R
21:11	457642	R
21:11	457879	R
21:12	458119	R
21:13	458352	R
21:13	458574	R
21:14	458811	R
21:15	459053	R
21:15	459290	R
21:16	459530	R
21:17	459768	R
21:17	460008	R
21:18	460240	R
21:19	460462	R
21:19	460689	R
21:20	460923	R
21:21	461164	R
21:21	461401	R
21:22	461643	R
21:23	461887	R
21:23	462118	R
21:24	462346	R
21:24	462571	R
21:25	462799	R
21:26	463028	R
21:26	463262	R
21:27	463508	R
21:28	463750	R
21:28	463996	R
21:29	464242	R
21:30	464487	R
21:30	464718	R
21:31	464944	R
21:32	465176	R
21:32	465411	R
21:33	465661	R
21:34	465922	R
21:34	466175	R
21:35	466418	R
21:36	466648	R
21:36	466876	R
21:37	467101	R
21:38	467328	R
21:38	467559	R
21:39	467796	R
21:40	468051	R
21:40	468296	R
21:41	468547	R
21:42	468797	R
21:42	469038	R
21:43	469270	R
21:44	469504	R
21:44	469745	R
21:45	469985	R
21:46	470230	R
21:46	470486	R
21:47	470737	R
21:48	470978	R
21:48	471210	R
21:49	471449	R
21:50	471696	R
21:50	471940	R
21:51	472190	R
21:52	472450	R
21:53	472700	R
21:53	472941	R
21:54	473185	R
21:55	473427	R
21:55	473656	R
21:56	473893	R
21:57	474137	R
21:57	474386	R
21:58	474633	R
21:59	474886	R
21:59	475131	R
22:00	475369	R
22:01	475615	R
22:01	475859	R
22:02	476100	R
22:03	476346	R
22:03	476601	R
22:04	476854	R
22:05	477100	R
22:05	477348	R
22:06	477591	R
22:07	477822	R
22:07	478047	R
22:08	478286	R
22:09	478539	R
22:09	478785	R
22:10	479038	R
22:11	479293	R
22:12	479539	R
22:12	479768	R
22:13	480001	R
22:14	480240	R
22:14	480484	R
22:15	480736	R
22:16	480991	R
22:16	481246	R
22:17	481493	R
22:18	481733	R
22:18	481978	R
22:19	482225	R
22:20	482468	R
22:20	482709	R
22:21	482959	R
22:22	483223	R
22:23	483483	R
22:23	483734	R
22:24	483969	R
22:25	484209	R
22:25	484449	R
22:26	484687	R
22:27	484937	R
22:27	485208	N
22:28	485483	N
22:29	485739	N
22:30	486004	N
22:30	486263	N
22:31	486508	N
22:32	486746	N
22:32	486997	N
22:33	487262	N
22:34	487519	N
22:34	487777	N
22:35	488036	N
22:36	488287	N
22:37	488526	N
22:37	488772	N
22:38	489031	N
22:39	489288	N
22:39	489539	N
22:40	489782	N
22:41	490029	N
22:41	490276	N
22:42	490524	N
22:43	490763	N
22:43	491007	N
22:44	491268	N
22:45	491534	N
22:46	491796	N
22:46	492068	N
22:47	492324	N
22:48	492560	N
22:48	492792	N
22:49	493027	N
22:50	493260	N
22:50	493498	N
22:51	493746	N
22:52	494001	N
22:52	494253	N
22:53	494502	N
22:54	494745	N
22:54	494975	N
22:55	495203	N
22:56	495425	N
22:56	495652	N
22:57	495896	N
22:58	496141	N
22:58	496380	N
22:59	496619	N
23:00	496851	N
23:00	497073	N
23:01	497296	N
23:02	497528	N
23:02	497768	N
23:03	498016	N
23:04	498257	N
23:04	498503	N
23:05	498757	N
23:06	498996	N
23:06	499228	N
23:07	499464	N
23:08	499709	N
23:08	499939	N
23:09	500184	N
23:10	500449	N
23:10	500704	N
23:11	500954	N
23:12	501201	N
23:12	501443	N
23:13	501676	N
23:14	501913	N
23:14	502164	N
23:15	502327	~
23:15	502421	N
23:15	502485	~
23:16	502677	N
23:17	502922	N
23:17	503184	N
23:18	503448	N
23:19	503702	N
23:19	503950	N
23:20	504109	~
23:20	504183	N
23:21	504414	N
23:21	504652	N
23:22	504883	R
23:23	505112	R
23:23	505334	R
23:24	505558	R
23:24	505781	R
23:25	506003	R
23:26	506229	R
23:26	506463	R
23:27	506689	R
23:28	506926	R
23:28	507176	R
23:29	507419	R
23:30	507667	R
23:30	507905	R
23:31	508132	R
23:32	508357	R
23:32	508577	R
23:33	508805	R
23:33	509034	R
23:34	509253	R
23:35	509468	R
23:35	509677	R
23:36	509888	R
23:36	510099	R
23:37	510313	R
23:38	510551	R
23:38	510798	R
23:39	511037	R
23:40	511281	R
23:40	511538	R
23:41	511795	R
23:42	512029	R
23:42	512262	R
23:43	512489	R
23:44	512719	R
23:44	512957	R
23:45	513191	R
23:46	513428	R
23:46	513676	R
23:47	513928	R
23:48	514172	R
23:48	514400	R
23:49	514641	R
23:50	514887	R
23:50	515144	R
23:51	515390	R
23:52	515650	R
23:53	515911	R
23:53	516162	R
23:54	516399	R
23:55	516633	R
23:55	516872	R
23:56	517108	R
23:57	517352	R
23:57	517616	R
23:58	517882	R
23:59	518149	R
24:00	518401	R
24:00	518650	R
24:01	518898	R
24:02	519139	R
24:02	519382	R
24:03	519634	R
24:04	519896	R
24:04	520145	R
24:05	520393	R
24:06	520647	R
24:06	520891	R
24:07	521116	R
24:08	521350	R
24:08	521594	R
24:09	521848	R
24:10	522109	R
24:11	522384	R
24:11	522646	R
24:12	522890	R
24:13	523128	R
24:13	523362	R
24:14	523591	R
24:15	523823	R
24:15	524058	R
24:16	524298	R
24:17	524545	R
24:17	524786	R
24:18	525031	R
24:19	525271	R
24:19	525496	R
24:20	525735	R
24:21	525980	R
24:21	526231	R
24:22	526493	R
24:23	526756	R
24:23	527008	R
24:24	527249	R
24:25	527503	R
24:26	527774	N
24:26	528054	N
24:27	528334	N
24:28	528604	N
24:29	528851	N
24:29	529105	N
24:30	529354	N
24:31	529589	N
24:31	529818	N
24:32	530071	N
24:33	530356	N
24:33	530633	N
24:34	530903	N
24:35	531183	N
24:36	531451	N
24:36	531693	N
24:37	531932	N
24:38	532175	N
24:39	532469	N
24:40	532807	N
24:41	533161	N
24:41	533493	N
24:42	533796	N
24:43	534066	N
24:44	534314	N
24:44	534560	N
24:45	534809	N
24:46	535056	N
24:46	535306	N
24:47	535562	N
24:48	535815	N
24:49	536079	N
24:49	536351	N
24:50	536619	N
24:51	536876	N
24:52	537141	N
24:52	537406	N
24:53	537666	N
24:54	537911	N
24:54	538154	N
24:55	538389	N
24:56	538621	N
24:56	538851	N
24:57	539074	R
24:58	539309	R
24:58	539555	R
24:59	539793	R
25:00	540020	R
25:00	540237	R
25:01	540462	R
25:01	540690	R
25:02	540915	R
25:03	541156	R
25:03	541411	R
25:04	541668	R
25:05	541910	R
25:05	542147	R
25:06	542380	R
25:07	542605	R
25:07	542829	R
25:08	543054	R
25:09	543290	R
25:09	543550	R
25:10	543801	R
25:11	544044	R
25:11	544294	R
25:12	544527	R
25:13	544753	R
25:13	544981	R
25:14	545216	R
25:15	545451	R
25:15	545692	R
25:16	545933	R
25:17	546186	R
25:17	546433	R
25:18	546668	R
25:19	546903	R
25:19	547142	R
25:20	547380	R
25:21	547624	R
25:21	547876	R
25:22	548130	R
25:23	548374	R
25:23	548616	R
25:24	548860	R
25:25	549101	R
25:25	549352	R
25:26	549610	R
25:27	549862	R
25:28	550122	R
25:28	550389	R
25:29	550651	R
25:30	550896	R
25:30	551136	R
25:31	551370	R
25:32	551603	R
25:32	551855	R
25:33	552124	R
25:34	552381	R
25:35	552630	R
25:35	552876	R
25:36	553112	R
25:37	553337	R
25:37	553565	R
25:38	553807	R
25:39	554049	R
25:39	554297	R
25:40	554552	R
25:41	554818	R
25:41	555069	R
25:42	555310	R
25:43	555546	R
25:43	555791	R
25:44	556038	R
25:45	556287	R
25:45	556548	R
25:46	556800	R
25:47	557044	R
25:48	557292	R
25:48	557530	R
25:49	557767	R
25:50	558004	R
25:50	558247	R
25:51	558495	R
25:52	558745	R
25:52	559000	R
25:53	559252	R
25:54	559495	R
25:54	559736	R
25:55	559978	R
25:56	560211	R
25:56	560449	R
25:57	560705	R
25:58	560959	R
25:58	561202	R
25:59	561440	R
26:00	561671	R
26:00	561893	R
26:01	562109	R
26:02	562333	R
26:02	562568	R
26:03	562807	R
26:04	563058	R
26:04	563308	R
26:05	563562	R
26:06	563811	R
26:06	564057	R
26:07	564288	R
26:08	564526	R
26:08	564773	R
26:09	565020	R
26:10	565272	R
26:10	565530	R
26:11	565781	R
26:12	566018	R
26:12	566253	R
26:13	566502	R
26:14	566751	R
26:14	566997	R
26:15	567249	R
26:16	567514	R
26:17	567768	R
26:17	568025	R
26:18	568279	R
26:19	568528	R
26:19	568764	R
26:20	569004	R
26:21	569260	R
26:22	569521	R
26:22	569776	R
26:23	570029	R
26:24	570272	R
26:24	570507	R
26:25	570741	R
26:26	570984	R
26:26	571245	R
26:27	571517	N
26:28	571773	N
26:28	572032	N
26:29	572301	N
26:30	572400	~
26:30	572546	N
26:31	572780	N
26:31	572840	~
26:31	573015	N
26:32	573256	N
26:33	573510	N
26:33	573769	N
26:34	574020	N
26:35	574269	N
26:35	574520	N
26:36	574753	N
26:37	574997	N
26:37	575261	N
26:38	575533	N
26:39	575805	N
26:40	576060	N
26:40	576314	N
26:41	576562	N
26:42	576800	N
26:42	577026	N
26:43	577253	N
26:44	577483	N
26:44	577732	N
26:45	578012	N
26:46	578295	N
26:46	578363	~
26:47	578568	N
26:47	578817	N
26:48	579064	N
26:49	579320	N
26:50	579602	N
26:50	579872	N
26:51	580132	N
26:52	580384	N
26:52	580631	N
26:53	580881	N
26:54	581114	N
26:54	581268	~
26:54	581342	N
26:55	581576	N
26:56	581827	N
26:56	582079	N
26:57	582336	N
26:58	582613	N
26:59	582882	N
26:59	583138	N
27:00	583396	N
27:01	583659	N
27:01	583906	N
27:02	584149	N
27:03	584404	N
27:04	584671	N
27:04	584930	N
27:05	585179	N
27:06	585421	N
27:06	585657	N
27:07	585893	N
27:08	586122	N
27:08	586361	N
27:09	586612	N
27:10	586872	N
27:10	587119	N
27:11	587373	N
27:12	587620	N
27:12	587867	N
27:13	588105	N
27:14	588349	N
27:14	588597	N
27:15	588845	N
27:16	589091	N
27:17	589343	N
27:17	589585	N
27:18	589818	N
27:19	590043	N
27:19	590275	N
27:20	590521	N
27:21	590768	N
27:21	591020	N
27:22	591281	N
27:23	591537	N
27:23	591768	N
27:24	591997	N
27:25	592234	N
27:25	592462	N
27:26	592691	N
27:27	592921	N
27:27	593167	N
27:28	593440	N
27:29	593714	N
27:30	594008	N
27:30	594274	N
27:31	594520	N
27:32	594768	N
27:32	595026	N
27:33	595275	N
27:34	595521	N
27:34	595762	N
27:35	595996	N
27:36	596223	N
27:36	596447	N
27:37	596677	N
27:38	596917	N
27:38	597171	N
27:39	597440	N
27:40	597699	N
27:41	597972	N
27:41	598241	N
27:42	598503	N
27:43	598738	N
27:43	598983	N
27:44	599229	N
27:45	599481	N
27:45	599734	N
27:46	599992	N
27:47	600249	N
27:48	600504	N
27:48	600741	N
27:49	600988	N
27:50	601234	N
27:50	601482	N
27:51	601729	N
27:52	601988	N
27:52	602245	N
27:53	602498	N
27:54	602739	N
27:54	602972	N
27:55	603210	N
27:56	603448	N
27:56	603690	N
27:57	603946	N
27:58	604206	N
27:59	604457	N
27:59	604701	N
28:00	604945	N
28:01	605183	N
28:01	605417	N
28:02	605652	N
28:03	605895	N
28:03	606148	N
28:04	606395	N
28:05	606649	N
28:05	606903	N
28:06	607150	N
28:07	607379	N
28:07	607613	N
28:08	607859	N
28:09	608105	N
28:09	608357	N
28:10	608613	N
28:11	608862	N
28:11	609113	N
28:12	609353	N
28:13	609592	N
28:13	609835	N
28:14	610090	N
28:15	610334	N
28:16	610598	N
28:16	610868	N
28:17	611132	N
28:18	611373	N
28:18	611609	N
28:19	611849	N
28:20	612080	N
28:20	612321	N
28:21	612584	N
28:22	612849	N
28:23	613097	N
28:23	613345	N
28:24	613596	N
28:25	613831	N
28:25	614066	N
28:26	614308	N
28:27	614551	N
28:27	614791	N
28:28	615036	N
28:29	615298	N
28:29	615548	N
28:30	615783	N
28:31	616012	N
28:31	616245	N
28:32	616483	N
28:33	616723	N
28:33	616974	N
28:34	617235	N
28:35	617492	N
28:35	617730	N
28:36	617962	N
28:37	618197	N
28:37	618431	N
28:38	618667	N
28:39	618907	N
28:39	619156	N
28:40	619407	N
28:41	619655	N
28:41	619898	N
28:42	620136	N
28:43	620379	N
28:43	620621	N
28:44	620873	N
28:45	621122	N
28:46	621371	N
28:46	621622	N
28:47	621883	N
28:48	622123	N
28:48	622351	N
28:49	622581	N
28:50	622821	N
28:50	623048	N
28:51	623272	R
28:51	623500	R
28:52	623737	R
28:53	623976	R
28:53	624224	R
28:54	624472	R
28:55	624708	R
28:55	624932	R
28:56	625153	R
28:57	625389	R
28:57	625633	R
28:58	625864	R
28:59	626096	R
28:59	626330	R
29:00	626573	R
29:01	626805	R
29:01	627030	R
29:02	627260	R
29:03	627506	R
29:03	627759	R
29:04	627997	R
29:05	628240	R
29:05	628482	R
29:06	628707	R
29:07	628927	R
29:07	629147	R
29:08	629376	R
29:08	629612	R
29:09	629852	R
29:10	630100	R
29:10	630358	R
29:11	630613	R
29:12	630840	R
29:12	631067	R
29:13	631298	R
29:14	631520	R
29:14	631736	R
29:15	631951	R
29:16	632177	R
29:16	632425	R
29:17	632673	R
29:18	632912	R
29:18	633148	R
29:19	633400	R
29:20	633645	R
29:20	633893	R
29:21	634154	R
29:22	634418	R
29:22	634675	R
29:23	634918	R
29:24	635162	R
29:25	635408	R
29:25	635640	R
29:26	635869	R
29:26	636112	R
29:27	636373	R
29:28	636623	R
29:29	636882	R
29:29	637135	R
29:30	637366	R
29:31	637591	R
29:31	637813	R
29:32	638094	N
29:33	638393	N
29:34	638690	N
29:34	638976	N
29:35	639245	N
29:36	639489	N
29:37	639721	N
29:37	639961	N
29:38	640204	N
29:39	640466	N
29:39	640733	N
29:40	641013	N
29:41	641299	N
29:42	641586	N
29:42	641842	N
29:43	642097	N
29:44	642359	N
29:45	642615	N
29:45	642880	N
29:46	643152	N
29:47	643422	N
29:47	643671	N
29:48	643929	N
29:49	644183	N
29:50	644433	N
29:50	644665	N
29:51	644917	N
29:52	645182	N
29:52	645438	N
29:53	645708	N
29:54	645977	N
29:55	646224	N
29:55	646452	N
29:56	646694	N
29:57	646945	N
29:57	647200	N
29:58	647448	N
29:59	647684	N
29:59	647912	N
30:00	648139	N
30:01	648368	N
30:01	648602	N
30:02	648863	N
30:03	649141	N
30:03	649414	N
30:04	649673	N
30:05	649945	N
