0:00	95	N
0:00	253	N
0:01	478	N
0:01	673	N
0:02	873	N
0:02	1076	N
0:03	1272	N
0:04	1466	N
0:04	1655	N
0:05	1849	N
0:05	2047	N
0:06	2236	N
0:06	2433	N
0:07	2632	N
0:07	2832	N
0:08	3021	N
0:08	3219	N
0:09	3408	N
0:10	3603	N
0:10	3806	N
0:11	4007	N
0:11	4200	N
0:12	4401	N
0:12	4592	N
0:13	4785	N
0:13	4976	N
0:14	5172	N
0:14	5374	N
0:15	5571	N
0:16	5771	N
0:16	5963	N
0:17	6156	N
0:17	6347	N
0:18	6543	N
0:18	6742	N
0:19	6941	N
0:19	7134	N
0:20	7333	N
0:20	7522	N
0:21	7715	N
0:21	7914	N
0:22	8107	N
0:23	8302	N
0:23	8497	N
0:24	8699	N
0:24	8898	N
0:25	9095	N
0:25	9284	N
0:26	9481	N
0:26	9681	N
0:27	9882	N
0:27	10074	N
0:28	10273	N
0:29	10462	N
0:29	10656	N
0:30	10850	N
0:30	11042	N
0:31	11236	N
0:31	11433	N
0:32	11636	N
0:32	11827	N
0:33	12021	N
0:33	12214	N
0:34	12409	N
0:35	12606	N
0:35	12808	N
0:36	13005	N
0:36	13203	N
0:37	13391	N
0:37	13585	N
0:38	13781	N
0:38	13978	N
0:39	14173	N
0:39	14369	N
0:40	14568	N
0:41	14763	N
0:41	14957	N
0:42	15146	N
0:42	15339	N
0:43	15536	N
0:43	15736	N
0:44	15929	N
0:44	16127	N
0:45	16320	N
0:45	16512	N
0:46	16706	N
0:46	16905	N
0:47	17095	N
0:48	17296	N
0:48	17499	N
0:49	17695	N
0:49	17886	N
0:50	18080	N
0:50	18272	N
0:51	18471	N
0:51	18671	N
0:52	18866	N
0:52	19061	N
0:53	19253	N
0:54	19446	N
0:54	19636	N
0:55	19834	N
0:55	20026	N
0:56	20222	N
0:56	20418	N
0:57	20615	N
0:57	20809	N
0:58	21004	N
0:58	21192	N
0:59	21387	N
0:59	21591	N
1:00	21791	F
1:01	21990	N
1:01	22184	N
1:02	22374	N
1:02	22571	N
1:03	22728	A
1:03	22953	N
1:04	23154	N
1:04	23350	N
1:05	23554	N
1:05	23744	N
1:06	23936	N
1:07	24127	N
1:07	24328	N
1:08	24526	N
1:08	24725	N
1:09	24920	N
1:09	25116	N
1:10	25305	N
1:10	25498	N
1:11	25696	N
1:11	25894	N
1:12	26092	N
1:13	26288	N
1:13	26486	N
1:14	26680	N
1:14	26881	N
1:15	27069	N
1:15	27262	N
1:16	27461	N
1:16	27662	N
1:17	27855	N
1:17	28050	N
1:18	28241	N
1:18	28435	N
1:19	28629	N
1:20	28825	N
1:20	29020	N
1:21	29216	N
1:21	29417	N
1:22	29617	N
1:22	29813	N
1:23	30006	N
1:23	30206	N
1:24	30406	N
1:25	30610	N
1:25	30801	N
1:26	31003	N
1:26	31194	N
1:27	31389	N
1:27	31586	N
1:28	31782	N
1:28	31977	N
1:29	32177	N
1:29	32378	N
1:30	32569	N
1:31	32764	N
1:31	32960	N
1:32	33153	N
1:32	33348	N
1:33	33549	N
1:33	33748	N
1:34	33945	N
1:34	34135	N
1:35	34334	N
1:35	34530	N
1:36	34727	N
1:37	34927	N
1:37	35123	N
1:38	35323	N
1:38	35522	N
1:39	35720	N
1:39	35912	N
1:40	36105	N
1:40	36304	N
1:41	36506	N
1:41	36697	N
1:42	36899	N
1:43	37087	N
1:43	37283	N
1:44	37477	N
1:44	37676	N
1:45	37871	N
1:45	38069	N
1:46	38267	N
1:46	38466	N
1:47	38661	N
1:47	38856	N
1:48	39049	N
1:49	39249	N
1:49	39447	N
1:50	39643	N
1:50	39843	F
1:51	40036	N
1:51	40230	N
1:52	40421	N
1:52	40621	N
1:53	40811	N
1:53	41006	N
1:54	41206	N
1:55	41402	N
1:55	41595	N
1:56	41790	N
1:56	41981	N
1:57	42178	N
1:57	42380	N
1:58	42582	F
1:58	42777	N
1:59	42969	F
1:59	43165	N
2:00	43362	F
2:01	43560	N
2:01	43751	V
2:02	43953	N
2:02	44159	F
2:03	44355	N
2:03	44550	F
2:04	44747	N
2:04	44939	F
2:05	45135	N
2:05	45333	N
2:06	45530	N
2:07	45729	F
2:07	45921	N
2:08	46122	F
2:08	46306	N
2:09	46507	F
2:09	46701	N
2:10	46904	F
2:10	47101	N
2:11	47296	F
2:11	47489	N
2:12	47683	F
2:12	47876	N
2:13	48073	F
2:14	48270	N
2:14	48469	F
2:15	48666	N
2:15	48861	F
2:16	49052	N
2:16	49243	F
2:17	49444	N
2:17	49631	F
2:18	49831	N
2:18	49998	V
2:19	50232	N
2:20	50423	F
2:20	50618	N
2:21	50815	F
2:21	51010	N
2:22	51210	F
2:22	51409	N
2:23	51604	N
2:23	51800	N
2:24	51994	N
2:24	52189	N
2:25	52384	N
2:26	52574	N
2:26	52776	N
2:27	52973	N
2:27	53173	F
2:28	53362	N
2:28	53560	F
2:29	53750	N
2:29	53845	+
2:29	53940	V
2:30	54141	N
2:30	54341	V
2:31	54535	N
2:32	54720	V
2:32	54821	+
2:32	54923	N
2:33	55114	F
2:33	55310	N
2:34	55505	N
2:34	55701	N
2:35	55894	F
2:35	56098	N
2:36	56290	F
2:36	56484	N
2:37	56676	F
2:37	56870	N
2:38	57069	F
2:39	57268	N
2:39	57445	V
2:40	57659	N
2:40	57848	F
2:41	58040	N
2:41	58238	F
2:42	58426	N
2:42	58625	F
2:43	58822	N
2:43	59024	F
2:44	59212	N
2:45	59408	F
2:45	59602	N
2:46	59796	F
2:46	59995	N
2:47	60165	V
2:47	60396	N
2:48	60594	V
2:48	60784	N
2:49	60982	F
2:49	61176	N
2:50	61371	F
2:51	61569	N
2:51	61767	N
2:52	61966	N
2:52	62158	N
2:53	62355	N
2:53	62548	N
2:54	62742	N
2:54	62939	F
2:55	63142	N
2:55	63318	V
2:56	63537	N
2:57	63727	N
2:57	63921	N
2:58	64118	F
2:58	64310	N
2:59	64503	F
2:59	64706	N
3:00	64906	F
3:00	65101	N
3:01	65296	F
3:01	65487	N
3:02	65685	F
3:03	65884	N
3:03	66084	F
3:04	66279	N
3:04	66479	N
3:05	66666	N
3:05	66860	N
3:06	67050	N
3:06	67243	F
3:07	67438	N
3:07	67635	V
3:08	67833	N
3:08	68030	V
3:09	68230	N
3:10	68422	F
3:10	68614	N
3:11	68815	F
3:11	69020	N
3:12	69215	F
3:12	69411	N
3:13	69603	F
3:13	69804	N
3:14	69999	N
3:14	70194	N
3:15	70388	N
3:16	70590	N
3:16	70787	F
3:17	70985	N
3:17	71178	V
3:18	71371	N
3:18	71534	V
3:19	71764	N
3:19	71965	F
3:20	72160	N
3:21	72362	F
3:21	72555	N
3:22	72748	F
3:22	72942	N
3:23	73141	F
3:23	73335	N
3:24	73536	F
3:24	73737	N
3:25	73938	F
3:25	74131	N
3:26	74330	F
3:27	74526	N
3:27	74721	F
3:28	74923	N
3:28	75122	F
3:29	75322	N
3:29	75512	F
3:30	75703	N
3:30	75896	V
3:31	76100	N
3:31	76291	F
3:32	76488	N
3:33	76687	N
3:33	76884	N
3:34	77075	N
3:34	77274	N
3:35	77464	F
3:35	77661	N
3:36	77867	V
3:36	78064	N
3:37	78258	F
3:37	78456	N
3:38	78654	F
3:39	78845	N
3:39	79043	F
3:40	79238	N
3:40	79436	F
3:41	79632	N
3:41	79830	F
3:42	80023	N
3:42	80218	F
3:43	80410	N
3:43	80606	F
3:44	80802	N
3:45	81004	F
3:45	81189	F
3:46	81394	N
3:46	81585	N
3:47	81781	N
3:47	81981	N
3:48	82179	F
3:48	82382	N
3:49	82579	F
3:49	82779	N
3:50	82976	F
3:51	83170	N
3:51	83359	F
3:52	83559	N
3:52	83758	F
3:53	83957	N
3:53	84153	F
3:54	84350	N
3:54	84539	F
3:55	84734	N
3:55	84933	F
3:56	85123	N
3:57	85324	F
3:57	85524	N
3:58	85722	N
3:58	85914	N
3:59	86113	N
3:59	86306	N
4:00	86503	N
4:00	86707	N
4:01	86907	F
4:01	87101	N
4:02	87301	V
4:02	87442	N
4:03	87675	F
4:04	87884	N
4:04	88078	N
4:05	88275	N
4:05	88468	N
4:06	88668	N
4:06	88859	N
4:07	89051	N
4:07	89240	F
4:08	89437	N
4:08	89637	F
4:09	89838	N
4:10	90032	V
4:10	90231	N
4:11	90423	N
4:11	90620	N
4:12	90822	N
4:12	91010	N
4:13	91210	N
4:13	91410	N
4:14	91615	N
4:15	91806	N
4:15	92003	F
4:16	92201	N
4:16	92397	F
4:17	92591	N
4:17	92788	F
4:18	92983	N
4:18	93152	V
4:19	93381	N
4:19	93571	N
4:20	93768	N
4:21	93964	N
4:21	94167	N
4:22	94362	N
4:22	94561	N
4:23	94753	N
4:23	94952	N
4:24	95145	N
4:24	95340	N
4:25	95537	N
4:25	95734	N
4:26	95831	+
4:26	95929	V
4:27	96127	N
4:27	96314	V
4:28	96508	N
4:28	96688	V
4:28	96794	+
4:29	96900	N
4:29	97094	F
4:30	97286	N
4:30	97491	N
4:31	97681	N
4:31	97874	F
4:32	98068	N
4:32	98264	N
4:33	98463	N
4:34	98663	N
4:34	98858	N
4:35	99059	N
4:35	99250	N
4:36	99445	F
4:36	99646	N
4:37	99823	V
4:37	100036	N
4:38	100236	N
4:38	100436	N
4:39	100637	N
4:40	100833	N
4:40	101024	N
4:41	101218	N
4:41	101418	N
4:42	101618	N
4:42	101811	F
4:43	102009	N
4:43	102185	V
4:44	102398	N
4:44	102596	N
4:45	102791	N
4:46	102993	N
4:46	103189	N
4:47	103392	N
4:47	103587	N
4:48	103789	N
4:48	103977	N
4:49	104173	N
4:49	104373	N
4:50	104583	N
4:51	104776	N
4:51	104974	N
4:52	105166	N
4:52	105365	N
4:53	105558	N
4:53	105750	F
4:54	105950	N
4:54	106131	V
4:55	106350	N
4:55	106527	V
4:56	106741	N
4:57	106940	F
4:57	107133	N
4:58	107329	N
4:58	107533	N
4:59	107730	N
4:59	107929	N
5:00	108119	F
5:00	108317	N
5:01	108512	V
5:01	108707	N
5:02	108908	V
5:03	109103	N
5:03	109303	N
5:04	109499	N
5:04	109696	N
5:05	109885	N
5:05	110076	N
5:06	110278	N
5:06	110480	N
5:07	110672	N
5:07	110873	N
5:08	111062	N
5:09	111258	N
5:09	111451	N
5:10	111630	V
5:10	111846	N
5:11	112028	V
5:11	112251	N
5:12	112449	N
5:12	112646	N
5:13	112845	N
5:13	113037	N
5:14	113234	N
5:15	113437	N
5:15	113631	N
5:16	113827	N
5:16	114019	N
5:17	114211	N
5:17	114401	N
5:18	114596	N
5:18	114696	+
5:18	114796	V
5:19	114993	N
5:19	115191	V
5:20	115390	N
5:21	115590	V
5:21	115686	+
5:21	115782	N
5:22	115973	N
5:22	116175	N
5:23	116377	N
5:23	116575	N
5:24	116774	N
5:24	116967	N
5:25	117159	F
5:25	117352	N
5:26	117520	V
5:27	117746	N
5:27	117945	V
5:28	118148	N
5:28	118344	N
5:29	118536	N
5:29	118730	N
5:30	118924	N
5:30	119120	N
5:31	119320	N
5:31	119515	N
5:32	119717	N
5:33	119908	N
5:33	120102	N
5:34	120295	F
5:34	120498	N
5:35	120663	V
5:35	120897	N
5:36	121097	N
5:36	121299	N
5:37	121493	N
5:38	121687	N
5:38	121883	N
5:39	122083	N
5:39	122282	N
5:40	122480	N
5:40	122682	N
5:41	122872	N
5:41	123066	N
5:42	123216	A
5:42	123455	N
5:43	123649	N
5:44	123849	N
5:44	124053	N
5:45	124250	N
5:45	124444	N
5:46	124641	N
5:46	124834	N
5:47	124998	A
5:47	125237	N
5:48	125439	N
5:48	125635	N
5:49	125829	N
5:50	126024	N
5:50	126223	N
5:51	126420	N
5:51	126615	N
5:52	126817	N
5:52	127019	N
5:53	127213	N
5:53	127405	N
5:54	127603	N
5:54	127794	N
5:55	127991	N
5:56	128197	N
5:56	128396	N
5:57	128593	N
5:57	128784	N
5:58	128981	N
5:58	129181	N
5:59	129378	N
5:59	129520	A
6:00	129764	N
6:01	129971	N
6:01	130166	N
6:02	130361	N
6:02	130557	N
6:03	130748	N
6:03	130948	N
6:04	131153	N
6:04	131350	N
6:05	131544	N
6:05	131734	N
6:06	131932	N
6:07	132123	N
6:07	132321	N
6:08	132518	N
6:08	132715	N
6:09	132916	N
6:09	133114	N
6:10	133307	N
6:10	133503	N
6:11	133697	N
6:11	133902	N
6:12	134101	N
6:13	134296	N
6:13	134453	A
6:14	134688	N
6:14	134888	N
6:15	135082	N
6:15	135282	N
6:16	135475	N
6:16	135625	A
6:17	135868	N
6:17	136065	N
6:18	136260	N
6:19	136453	N
6:19	136648	N
6:20	136851	N
6:20	137050	N
6:21	137246	N
6:21	137443	N
6:22	137636	N
6:22	137831	N
6:23	138023	N
6:23	138224	N
6:24	138418	N
6:25	138616	N
6:25	138821	N
6:26	139016	N
6:26	139210	N
6:27	139403	N
6:27	139599	N
6:28	139804	N
6:28	140004	N
6:29	140198	N
6:30	140400	N
6:30	140591	N
6:31	140786	N
6:31	140981	N
6:32	141181	N
6:32	141374	N
6:33	141574	N
6:33	141776	N
6:34	141970	N
6:34	142168	N
6:35	142368	N
6:36	142561	N
6:36	142759	N
6:37	142923	A
6:37	143162	N
6:38	143362	N
6:38	143557	N
6:39	143752	N
6:39	143949	N
6:40	144146	N
6:40	144343	N
6:41	144539	N
6:42	144737	N
6:42	144936	N
6:43	145133	N
6:43	145322	N
6:44	145516	N
6:44	145714	N
6:45	145923	N
6:45	146116	N
6:46	146314	N
6:46	146502	N
6:47	146710	N
6:48	146903	N
6:48	147100	N
6:49	147299	N
6:49	147501	N
6:50	147697	N
6:50	147892	N
6:51	148087	N
6:51	148288	N
6:52	148479	N
6:52	148676	N
6:53	148880	N
6:54	149076	N
6:54	149280	N
6:55	149467	N
6:55	149659	N
6:56	149856	N
6:56	150053	N
6:57	150246	N
6:57	150442	N
6:58	150645	N
6:58	150839	N
6:59	151035	N
7:00	151232	N
7:00	151429	N
7:01	151627	N
7:01	151830	N
7:02	152030	N
7:02	152227	N
7:03	152417	N
7:03	152615	N
7:04	152813	N
7:05	153007	N
7:05	153199	N
7:06	153399	N
7:06	153599	N
7:07	153793	N
7:07	153987	N
7:08	154187	N
7:08	154379	N
7:09	154575	N
7:09	154779	N
7:10	154980	N
7:11	155175	N
7:11	155369	N
7:12	155569	N
7:12	155761	N
7:13	155958	F
7:13	156155	N
7:14	156357	N
7:14	156556	N
7:15	156753	N
7:15	156951	N
7:16	157147	N
7:17	157334	N
7:17	157530	N
7:18	157732	N
7:18	157933	N
7:19	158126	N
7:19	158289	A
7:20	158511	N
7:20	158710	N
7:21	158907	N
7:21	159096	N
7:22	159294	N
7:23	159494	N
7:23	159674	V
7:24	159891	N
7:24	160086	N
7:25	160282	N
7:25	160479	N
7:26	160678	N
7:26	160877	N
7:27	161075	N
7:27	161268	N
7:28	161459	N
7:29	161653	N
7:29	161850	N
7:30	162039	F
7:30	162239	N
7:31	162438	V
7:31	162636	N
7:32	162827	V
7:32	163026	N
7:33	163222	F
7:33	163414	N
7:34	163614	F
7:35	163818	N
7:35	164017	F
7:36	164212	N
7:36	164405	F
7:37	164607	N
7:37	164805	F
7:38	164996	N
7:38	165201	V
7:39	165397	N
7:39	165595	V
7:40	165796	N
7:41	165991	F
7:41	166180	N
7:42	166376	F
7:42	166586	N
7:43	166782	F
7:43	166981	N
7:44	167075	+
7:44	167169	V
7:44	167372	N
7:45	167547	V
7:46	167763	N
7:46	167961	V
7:46	168060	+
7:47	168160	N
7:47	168359	F
7:48	168563	N
7:48	168759	F
7:49	168951	N
7:49	169143	V
7:50	169338	N
7:50	169547	N
7:51	169749	N
7:52	169946	V
7:52	170139	N
7:53	170336	F
7:53	170527	N
7:53	170619	+
7:54	170712	V
7:54	170924	N
7:55	171123	V
7:55	171322	N
7:56	171520	V
7:56	171620	+
7:57	171721	N
7:57	171915	F
7:58	172103	N
7:58	172306	F
7:59	172515	N
7:59	172715	F
8:00	172912	N
8:00	173108	F
8:01	173305	N
8:01	173400	+
8:01	173495	V
8:02	173700	N
8:03	173896	V
8:03	174095	N
8:04	174268	V
8:04	174382	+
8:04	174497	N
8:05	174691	N
8:05	174883	N
8:06	175079	N
8:06	175284	N
8:07	175484	F
8:08	175683	N
8:08	175883	F
8:09	176074	N
8:09	176272	F
8:10	176464	N
8:10	176557	+
8:10	176651	V
8:11	176863	N
8:11	177029	V
8:12	177268	N
8:12	177450	V
8:13	177558	+
8:13	177666	N
8:14	177860	F
8:14	178052	N
8:15	178253	F
8:15	178458	N
8:16	178656	F
8:16	178849	N
8:17	179040	F
8:17	179235	N
8:18	179432	F
8:18	179625	N
8:19	179820	V
8:20	180019	N
8:20	180193	V
8:21	180416	N
8:21	180612	F
8:22	180808	N
8:22	181004	N
8:23	181204	N
8:23	181407	N
8:24	181602	N
8:25	181807	N
8:25	181997	N
8:26	182189	V
8:26	182386	N
8:27	182568	V
8:27	182784	N
8:28	182982	N
8:28	183182	N
8:29	183374	N
8:29	183569	N
8:30	183760	N
8:30	183958	N
8:31	184153	N
8:32	184356	N
8:32	184536	A
8:33	184750	N
8:33	184918	V
8:34	185139	N
8:34	185336	N
8:35	185530	N
8:35	185725	F
8:36	185926	N
8:37	186131	F
8:37	186326	N
8:38	186519	V
8:38	186716	N
8:39	186909	F
8:39	187108	N
8:40	187316	F
8:40	187506	N
8:41	187704	F
8:41	187894	N
8:42	188090	V
8:43	188282	N
8:43	188475	V
8:44	188676	N
8:44	188874	F
8:45	189072	N
8:45	189265	F
8:46	189460	N
8:46	189660	F
8:47	189852	N
8:47	190050	F
8:48	190258	N
8:49	190456	F
8:49	190663	N
8:50	190852	F
8:50	191047	N
8:51	191244	F
8:51	191442	N
8:52	191636	F
8:52	191828	N
8:53	192029	V
8:53	192228	N
8:54	192422	F
8:55	192612	N
8:55	192807	V
8:56	193010	N
8:56	193212	F
8:57	193403	N
8:57	193600	F
8:58	193794	N
8:58	193991	F
8:59	194184	N
8:59	194384	F
9:00	194578	N
9:01	194777	V
9:01	194983	N
9:02	195180	F
9:02	195377	N
9:03	195573	F
9:03	195772	N
9:04	195972	N
9:04	196171	N
9:05	196367	N
9:06	196566	N
9:06	196761	N
9:07	196955	N
9:07	197148	F
9:08	197350	N
9:08	197542	F
9:09	197740	N
9:09	197911	V
9:10	198143	N
9:10	198341	F
9:11	198534	N
9:12	198732	N
9:12	198930	N
9:13	199134	N
9:13	199302	A
9:14	199532	N
9:14	199724	N
9:15	199920	N
9:15	200118	N
9:16	200313	F
9:16	200504	N
9:17	200689	V
9:18	200908	N
9:18	201102	N
9:19	201294	N
9:19	201492	N
9:20	201688	N
9:20	201883	N
9:21	202085	N
9:21	202282	N
9:22	202483	N
9:22	202675	N
9:23	202869	N
9:24	203070	N
9:24	203272	N
9:25	203466	N
9:25	203665	N
9:26	203836	V
9:26	204064	N
9:27	204238	V
9:27	204457	N
9:28	204658	N
9:29	204857	N
9:29	205058	N
9:30	205251	N
9:30	205455	N
9:31	205644	N
9:31	205838	N
9:32	206003	V
9:32	206233	N
9:33	206426	N
9:33	206625	N
9:34	206829	V
9:35	207028	N
9:35	207223	F
9:36	207416	N
9:36	207616	F
9:37	207814	N
9:37	208016	F
9:38	208214	N
9:38	208418	F
9:39	208605	N
9:40	208801	F
9:40	208997	N
9:41	209195	F
9:41	209389	N
9:42	209586	F
9:42	209789	N
9:43	209984	F
9:43	210178	N
9:44	210371	F
9:44	210568	N
9:45	210767	N
9:46	210969	N
9:46	211168	F
9:47	211371	N
9:47	211562	F
9:48	211758	N
9:48	211954	F
9:49	212153	N
9:49	212354	F
9:50	212526	N
9:50	212753	F
9:51	212950	N
9:52	213151	N
9:52	213340	N
9:53	213534	F
9:53	213736	N
9:54	213941	F
9:54	214132	N
9:55	214328	F
9:55	214520	N
9:56	214722	F
9:56	214917	N
9:57	215110	F
9:58	215310	N
9:58	215515	F
9:59	215718	N
9:59	215911	F
10:00	216110	N
10:00	216309	F
10:01	216506	N
10:01	216704	F
10:02	216904	N
10:03	217104	F
10:03	217307	N
10:04	217501	N
10:04	217690	N
10:05	217887	N
10:05	218082	N
10:06	218286	N
10:06	218484	N
10:07	218686	N
10:07	218879	F
10:08	219084	N
10:09	219273	N
10:09	219372	+
10:09	219471	V
10:10	219677	N
10:10	219878	V
10:11	220071	N
10:11	220256	V
10:12	220363	+
10:12	220471	N
10:12	220665	F
10:13	220869	N
10:14	221057	N
10:14	221259	N
10:15	221461	N
10:15	221658	N
10:16	221850	N
10:16	222049	N
10:17	222239	N
10:17	222436	N
10:18	222638	V
10:18	222839	N
10:19	223033	N
10:20	223231	N
10:20	223429	N
10:21	223620	N
10:21	223818	N
10:22	224011	N
10:22	224219	N
10:23	224414	N
10:23	224615	F
10:24	224810	N
10:24	224902	+
10:24	224994	V
10:25	225208	N
10:26	225384	V
10:26	225608	N
10:27	225777	V
10:27	225896	+
10:27	226015	N
10:28	226208	N
10:28	226400	N
10:29	226594	N
10:30	226800	N
10:30	226987	N
10:31	227186	N
10:31	227385	N
10:32	227592	N
10:32	227782	F
10:33	227976	N
10:33	228154	V
10:34	228374	N
10:34	228581	V
10:35	228780	N
10:36	228981	F
10:36	229136	A
10:37	229372	N
10:37	229566	N
10:38	229769	N
10:38	229965	N
10:39	230165	N
10:39	230365	N
10:40	230568	N
10:41	230761	N
10:41	230956	V
10:42	231152	N
10:42	231337	F
10:43	231558	N
10:43	231757	N
10:44	231908	A
10:44	232143	N
10:45	232343	N
10:45	232536	N
10:46	232742	N
10:47	232938	N
10:47	233136	N
10:48	233339	N
10:48	233542	N
10:49	233709	A
10:49	233930	N
10:50	234130	N
10:50	234331	N
10:51	234534	N
10:52	234732	N
10:52	234933	N
10:53	235123	N
10:53	235321	N
10:54	235515	N
10:54	235718	N
10:55	235912	N
10:55	236110	N
10:56	236315	N
10:56	236515	N
10:57	236712	N
10:58	236906	N
10:58	237108	N
10:59	237309	N
10:59	237510	N
11:00	237708	N
11:00	237908	N
11:01	238103	N
11:01	238307	N
11:02	238505	N
11:03	238703	N
11:03	238899	N
11:04	239107	N
11:04	239309	N
11:05	239505	N
11:05	239702	N
11:06	239899	N
11:06	240095	N
11:07	240294	N
11:08	240499	N
11:08	240698	N
11:09	240895	N
11:09	241086	N
11:10	241283	N
11:10	241486	N
11:11	241683	N
11:11	241881	N
11:12	242082	N
11:13	242289	N
11:13	242485	N
11:14	242682	N
11:14	242876	N
11:15	243079	N
11:15	243280	N
11:16	243482	N
11:16	243678	N
11:17	243881	N
11:17	244071	N
11:18	244266	N
11:19	244469	N
11:19	244664	N
11:20	244864	N
11:20	245064	N
11:21	245270	N
11:21	245463	N
11:22	245660	N
11:22	245857	N
11:23	246055	N
11:24	246256	N
11:24	246462	N
11:25	246662	N
11:25	246860	N
11:26	247052	N
11:26	247252	N
11:27	247452	N
11:27	247645	N
11:28	247850	N
11:29	248047	N
11:29	248249	N
11:30	248442	N
11:30	248643	N
11:31	248834	N
11:31	249031	N
11:32	249239	N
11:32	249440	N
11:33	249637	N
11:33	249837	N
11:34	250033	N
11:35	250226	N
11:35	250426	N
11:36	250622	N
11:36	250832	N
11:37	251030	N
11:37	251229	N
11:38	251427	N
11:38	251630	N
11:39	251822	N
11:40	252020	N
11:40	252228	N
11:41	252430	N
11:41	252626	N
11:42	252818	N
11:42	253017	N
11:43	253210	N
11:43	253410	N
11:44	253606	N
11:45	253805	N
11:45	254003	N
11:46	254203	N
11:46	254401	N
11:47	254595	N
11:47	254791	N
11:48	254998	N
11:48	255203	N
11:49	255401	N
11:50	255602	N
11:50	255797	N
11:51	255994	N
11:51	256188	N
11:52	256389	N
11:52	256584	N
11:53	256784	N
11:53	256990	N
11:54	257183	N
11:54	257380	N
11:55	257577	N
11:56	257774	N
11:56	257971	N
11:57	258175	N
11:57	258378	N
11:58	258576	N
11:58	258768	N
11:59	258970	N
11:59	259166	N
12:00	259365	N
12:01	259567	N
12:01	259766	N
12:02	259975	N
12:02	260174	N
12:03	260373	N
12:03	260569	N
12:04	260765	N
12:04	260966	N
12:05	261174	N
12:06	261366	N
12:06	261564	N
12:07	261760	N
12:07	261953	N
12:08	262153	N
12:08	262349	N
12:09	262539	N
12:09	262749	N
12:10	262958	N
12:10	263156	N
12:11	263353	N
12:12	263552	N
12:12	263751	N
12:13	263953	N
12:13	264160	N
12:14	264356	N
12:14	264555	N
12:15	264750	N
12:15	264945	N
12:16	265148	N
12:17	265343	N
12:17	265549	N
12:18	265743	N
12:18	265947	N
12:19	266141	N
12:19	266337	N
12:20	266531	N
12:20	266729	N
12:21	266940	N
12:22	267140	N
12:22	267337	N
12:23	267537	N
12:23	267741	N
12:24	267939	N
12:24	268140	N
12:25	268338	N
12:25	268537	N
12:26	268739	N
12:27	268943	N
12:27	269138	N
12:28	269333	N
12:28	269529	N
12:29	269730	N
12:29	269932	N
12:30	270132	N
12:30	270335	N
12:31	270527	N
12:32	270725	N
12:32	270922	N
12:33	271119	N
12:33	271315	N
12:34	271520	N
12:34	271725	N
12:35	271921	N
12:35	272121	N
12:36	272319	N
12:36	272513	N
12:37	272718	N
12:38	272925	N
12:38	273123	N
12:39	273325	N
12:39	273519	N
12:40	273717	N
12:40	273911	N
12:41	274112	N
12:41	274310	N
12:42	274506	N
12:43	274710	N
12:43	274909	F
12:44	275108	N
12:44	275301	F
12:45	275498	N
12:45	275705	V
12:46	275910	N
12:46	276105	V
12:47	276311	N
12:48	276505	F
12:48	276704	N
12:49	276909	F
12:49	277102	N
12:50	277304	F
12:50	277509	N
12:51	277712	F
12:51	277905	N
12:52	278006	+
12:52	278108	V
12:53	278300	N
12:53	278497	V
12:54	278700	N
12:54	278903	V
12:55	279099	N
12:55	279271	V
12:56	279384	+
12:56	279498	N
12:56	279692	F
12:57	279893	N
12:58	280092	F
12:58	280294	N
12:59	280492	F
12:59	280698	N
13:00	280903	F
13:00	281100	N
13:01	281292	F
13:01	281491	N
13:02	281700	F
13:03	281903	N
13:03	282095	F
13:04	282294	N
13:04	282376	+
13:04	282458	V
13:05	282688	N
13:05	282886	V
13:06	283078	N
13:06	283285	V
13:07	283383	+
13:07	283482	N
13:08	283683	F
13:08	283875	N
13:09	284078	N
13:09	284271	N
13:10	284469	N
13:10	284673	N
13:11	284877	N
13:11	285079	N
13:12	285276	F
13:12	285469	N
13:13	285569	+
13:13	285669	V
13:14	285875	N
13:14	286069	V
13:15	286269	N
13:15	286436	V
13:16	286675	N
13:16	286868	V
13:17	287065	N
13:17	287261	V
13:18	287361	+
13:18	287462	N
13:19	287664	N
13:19	287859	N
13:20	288061	N
13:20	288256	N
13:21	288451	N
13:21	288645	N
13:22	288847	N
13:22	289037	N
13:23	289237	F
13:24	289442	N
13:24	289627	V
13:25	289843	N
13:25	290039	N
13:26	290237	N
13:26	290434	N
13:27	290636	N
13:27	290835	N
13:28	291041	N
13:28	291232	F
13:29	291425	N
13:29	291587	V
13:30	291817	N
13:31	292012	N
13:31	292211	N
13:32	292418	V
13:32	292611	N
13:33	292807	V
13:33	293005	N
13:34	293202	F
13:34	293399	N
13:35	293604	F
13:36	293806	N
13:36	294008	F
13:37	294196	N
13:37	294394	F
13:38	294592	N
13:38	294788	F
13:39	294982	N
13:39	295181	V
13:40	295385	N
13:41	295565	V
13:41	295788	N
13:42	295978	F
13:42	296176	N
13:43	296385	F
13:43	296584	N
13:44	296778	N
13:44	296976	N
13:45	297173	N
13:46	297375	N
13:46	297570	F
13:47	297766	N
13:47	297969	V
13:48	298176	N
13:48	298379	V
13:49	298575	N
13:49	298774	F
13:50	298971	N
13:51	299176	F
13:51	299375	N
13:52	299579	F
13:52	299775	N
13:53	299980	F
13:53	300170	N
13:54	300361	F
13:54	300568	N
13:55	300766	V
13:56	300965	N
13:56	301165	F
13:57	301374	N
13:57	301577	F
13:58	301769	N
13:58	301962	N
13:59	302168	N
13:59	302379	N
14:00	302579	N
14:01	302775	N
14:01	302973	N
14:02	303174	N
14:02	303368	N
14:03	303568	F
14:03	303766	N
14:04	303973	N
14:04	304173	N
14:05	304368	F
14:06	304570	N
14:06	304770	N
14:07	304966	N
14:07	305166	N
14:08	305376	N
14:08	305527	A
14:09	305769	N
14:09	305961	V
14:10	306166	N
14:11	306369	N
14:11	306565	N
14:12	306767	N
14:12	306968	N
14:13	307178	N
14:13	307374	N
14:14	307572	N
14:14	307770	N
14:15	307971	F
14:16	308171	N
14:16	308273	+
14:16	308376	V
14:17	308577	N
14:17	308761	V
14:18	308970	N
14:18	309166	V
14:19	309270	+
14:19	309374	N
14:19	309568	N
14:20	309774	N
14:21	309970	N
14:21	310177	N
14:22	310376	N
14:22	310573	N
14:23	310766	N
14:23	310967	N
14:24	311179	F
14:24	311385	N
14:25	311583	V
14:26	311784	N
14:26	311985	V
14:27	312178	N
14:27	312379	N
14:28	312578	N
14:28	312780	N
14:29	312978	N
14:29	313179	N
14:30	313376	N
14:31	313572	N
14:31	313763	N
14:32	313967	N
14:32	314175	N
14:33	314376	F
14:33	314574	N
14:34	314764	N
14:34	314963	N
14:35	315140	V
14:36	315363	N
14:36	315566	N
14:37	315772	N
14:37	315973	N
14:38	316172	N
14:38	316376	V
14:39	316574	N
14:39	316768	N
14:40	316970	N
14:41	317175	N
14:41	317371	N
14:42	317571	N
14:42	317764	N
14:43	317966	N
14:43	318169	N
14:44	318310	A
14:44	318438	V
14:45	318751	N
14:46	318965	N
14:46	319159	N
14:47	319359	N
14:47	319554	F
14:48	319756	N
14:48	319953	F
14:49	320163	N
14:49	320358	N
14:50	320556	N
14:50	320748	N
14:51	320950	N
14:52	321146	N
14:52	321340	N
14:53	321542	N
14:53	321735	N
14:54	321935	F
14:54	322132	N
14:55	322260	+
14:55	322328	V
14:55	322505	V
14:56	322720	F
14:56	322850	+
14:57	322928	N
14:57	323132	N
14:58	323326	N
14:58	323526	N
14:59	323724	N
14:59	323921	N
15:00	324120	N
15:00	324319	F
15:01	324519	N
15:01	324700	V
15:02	324921	N
15:03	325122	N
15:03	325318	N
15:04	325512	N
15:04	325714	N
15:05	325914	N
15:05	326115	N
15:06	326309	N
15:06	326516	N
15:07	326707	N
15:08	326896	F
15:08	327105	V
15:09	327303	N
15:09	327506	F
15:10	327703	N
15:10	327915	N
15:11	328109	N
15:11	328309	N
15:12	328509	N
15:13	328707	N
15:13	328912	N
15:14	329120	N
15:14	329319	N
15:15	329516	V
15:15	329715	N
15:16	329917	F
15:16	330118	N
15:17	330313	F
15:18	330518	N
15:18	330717	N
15:19	330923	N
15:19	331118	N
15:20	331316	N
15:20	331514	N
15:21	331718	N
15:21	331880	A
15:22	332120	N
15:23	332308	V
15:23	332524	N
15:24	332726	N
15:24	332867	A
15:25	333110	N
15:25	333316	N
15:26	333523	N
15:27	333725	N
15:27	333923	N
15:28	334129	N
15:28	334321	N
15:29	334517	N
15:29	334723	N
15:30	334926	N
15:30	335127	N
15:31	335331	N
15:31	335519	N
15:32	335719	N
15:33	335924	N
15:33	336122	N
15:34	336321	N
15:34	336521	N
15:35	336735	N
15:35	336931	N
15:36	337131	N
15:37	337327	N
15:37	337532	N
15:38	337736	N
15:38	337941	N
15:39	338138	N
15:39	338335	N
15:40	338534	N
15:40	338733	N
15:41	338937	N
15:42	339127	N
15:42	339331	N
15:43	339538	N
15:43	339736	N
15:44	339895	A
15:44	340133	N
15:45	340333	N
15:45	340532	N
15:46	340739	N
15:47	340945	N
15:47	341146	N
15:48	341343	N
15:48	341548	N
15:49	341743	N
15:49	341946	N
15:50	342147	N
15:50	342346	N
15:51	342551	N
15:52	342755	N
15:52	342952	N
15:53	343145	N
15:53	343345	N
15:54	343547	N
15:54	343753	N
15:55	343951	N
15:55	344153	N
15:56	344343	N
15:57	344539	N
15:57	344744	N
15:58	344938	N
15:58	345138	N
15:59	345343	N
15:59	345551	N
16:00	345747	N
16:00	345949	N
16:01	346146	N
16:02	346344	N
16:02	346548	N
16:03	346755	N
16:03	346954	N
16:04	347154	N
16:04	347348	N
16:05	347546	N
16:05	347746	N
16:06	347940	N
16:07	348145	N
16:07	348349	N
16:08	348548	N
16:08	348741	N
16:09	348938	N
16:09	349132	N
16:10	349327	N
16:10	349536	N
16:11	349745	N
16:12	349944	N
16:12	350140	N
16:13	350337	N
16:13	350535	N
16:14	350737	N
16:14	350938	N
16:15	351141	N
16:15	351341	N
16:16	351541	N
16:17	351737	N
16:17	351932	N
16:18	352123	N
16:18	352318	N
16:19	352525	N
16:19	352722	N
16:20	352920	N
16:20	353112	N
16:21	353313	N
16:21	353505	N
16:22	353702	N
16:23	353898	N
16:23	354102	N
16:24	354305	N
16:24	354501	N
16:25	354703	N
16:25	354899	N
16:26	355092	N
16:26	355293	N
16:27	355498	N
16:28	355695	N
16:28	355894	N
16:29	356086	N
16:29	356281	N
16:30	356474	N
16:30	356673	N
16:31	356869	N
16:31	357070	N
16:32	357275	N
16:32	357473	N
16:33	357674	N
16:34	357864	N
16:34	358059	N
16:35	358264	N
16:35	358474	N
16:36	358668	N
16:36	358871	N
16:37	359063	N
16:37	359259	N
16:38	359451	N
16:39	359644	N
16:39	359843	N
16:40	360042	N
16:40	360243	N
16:41	360395	A
16:41	360629	N
16:42	360820	N
16:42	361012	N
16:43	361208	N
16:43	361414	N
16:44	361613	N
16:45	361810	N
16:45	362000	N
16:46	362192	N
16:46	362388	N
16:47	362589	N
16:47	362783	N
16:48	362981	N
16:48	363186	N
16:49	363389	N
16:49	363586	N
16:50	363780	N
16:51	363980	N
16:51	364184	N
16:52	364390	N
16:52	364587	N
16:53	364790	N
16:53	364985	N
16:54	365181	N
16:54	365379	N
16:55	365581	N
16:56	365780	N
16:56	365983	N
16:57	366189	N
16:57	366392	N
16:58	366591	N
16:58	366787	N
16:59	366992	N
17:00	367203	N
17:00	367408	N
17:01	367606	N
17:01	367813	N
17:02	368010	N
17:02	368207	N
17:03	368410	N
17:03	368615	N
17:04	368820	N
17:05	369017	N
17:05	369224	N
17:06	369424	N
17:06	369622	N
17:07	369817	N
17:07	370020	N
17:08	370232	N
17:08	370433	N
17:09	370633	N
17:10	370835	N
17:10	371034	N
17:11	371234	N
17:11	371439	N
17:12	371642	N
17:12	371844	N
17:13	372051	N
17:14	372258	N
17:14	372458	N
17:15	372653	N
17:15	372854	N
17:16	373065	N
17:16	373271	N
17:17	373468	N
17:17	373678	N
17:18	373871	N
17:19	374069	N
17:19	374272	N
17:20	374474	N
17:20	374676	N
17:21	374878	N
17:21	375088	F
17:22	375285	N
17:23	375486	F
17:23	375684	N
17:24	375893	F
17:24	376101	N
17:24	376196	+
17:25	376292	V
17:25	376507	N
17:26	376690	V
17:26	376909	N
17:27	377087	V
17:28	377312	N
17:28	377477	V
17:28	377597	+
17:29	377717	N
17:29	377920	F
17:30	378116	N
17:30	378316	F
17:31	378515	N
17:31	378707	F
17:32	378912	N
17:33	379120	F
17:33	379215	+
17:33	379318	V
17:34	379489	V
17:34	379676	V
17:35	379901	V
17:35	380044	+
17:35	380127	N
17:36	380307	F
17:37	380526	N
17:37	380734	N
17:38	380934	N
17:38	381127	F
17:39	381330	N
17:39	381413	+
17:39	381497	V
17:40	381732	N
17:40	381930	V
17:41	382133	N
17:41	382313	V
17:42	382399	+
17:42	382485	N
17:43	382717	F
17:43	382913	N
17:44	383123	F
17:44	383314	N
17:45	383516	F
17:45	383719	N
17:46	383923	V
17:47	384129	N
17:47	384328	F
17:48	384522	N
17:48	384697	V
17:49	384933	N
17:49	385136	F
17:50	385339	N
17:50	385536	F
17:51	385731	N
17:51	385831	+
17:52	385932	V
17:52	386134	N
17:53	386325	V
17:53	386527	N
17:54	386736	V
17:54	386932	N
17:55	387129	V
17:55	387327	N
17:56	387528	V
17:57	387729	N
17:57	387935	V
17:57	388036	+
17:58	388137	N
17:58	388335	F
17:59	388531	N
17:59	388734	V
18:00	388876	A
18:00	389008	V
18:01	389326	N
18:02	389536	N
18:02	389740	F
18:03	389941	N
18:03	390139	V
18:04	390337	N
18:04	390538	N
18:05	390735	N
18:05	390940	N
18:06	391142	N
18:07	391345	N
18:07	391533	N
18:08	391733	N
18:08	391939	N
18:09	392137	N
18:09	392337	N
18:10	392540	F
18:10	392748	N
18:11	392927	V
18:12	393142	N
18:12	393347	N
18:13	393546	N
18:13	393751	N
18:14	393958	N
18:14	394160	N
18:15	394355	N
18:15	394555	N
18:16	394755	N
18:17	394953	N
18:17	395149	N
18:18	395357	F
18:18	395556	N
18:19	395757	N
18:19	395959	N
18:20	396158	V
18:20	396354	N
18:21	396539	V
18:22	396770	N
18:22	396970	F
18:23	397175	N
18:23	397372	F
18:24	397573	N
18:24	397769	F
18:25	397973	N
18:26	398175	N
18:26	398372	N
18:27	398579	N
18:27	398778	N
18:28	398977	N
18:28	399170	N
18:29	399370	F
18:29	399577	N
18:30	399777	F
18:31	399973	N
18:31	400178	N
18:32	400376	N
18:32	400573	N
18:33	400773	N
18:33	400972	N
18:34	401174	N
18:34	401375	N
18:35	401586	N
18:36	401785	N
18:36	401986	N
18:37	402184	F
18:37	402388	N
18:38	402572	V
18:38	402795	N
18:39	402968	V
18:39	403196	N
18:40	403393	F
18:41	403592	N
18:41	403794	N
18:42	403989	N
18:42	404195	N
18:43	404400	N
18:43	404600	N
18:44	404800	N
18:45	405002	N
18:45	405195	N
18:46	405364	V
18:46	405606	N
18:47	405807	N
18:47	406008	N
18:48	406211	V
18:48	406408	N
18:49	406607	F
18:50	406809	N
18:50	407012	F
18:51	407217	N
18:51	407419	F
18:52	407619	N
18:52	407825	F
18:53	408016	N
18:53	408217	F
18:54	408421	N
18:55	408625	F
18:55	408821	N
18:56	409030	V
18:56	409222	N
18:57	409421	F
18:57	409627	N
18:58	409822	N
18:58	410026	N
18:59	410228	N
19:00	410439	N
19:00	410639	N
19:01	410837	N
19:01	411034	N
19:02	411239	N
19:02	411447	N
19:03	411650	N
19:04	411852	F
19:04	412052	N
19:05	412229	V
19:05	412451	N
19:06	412656	N
19:06	412852	N
19:07	413058	N
19:07	413258	N
19:08	413461	N
19:09	413665	N
19:09	413860	N
19:10	414055	N
19:10	414262	N
19:11	414474	N
19:11	414670	V
19:12	414874	N
19:12	415077	N
19:13	415278	N
19:14	415474	N
19:14	415673	N
19:15	415883	N
19:15	416082	N
19:16	416294	N
19:16	416490	N
19:17	416689	N
19:18	416886	N
19:18	417089	N
19:19	417294	N
19:19	417482	V
19:20	417700	N
19:20	417904	N
19:21	418095	N
19:21	418295	F
19:22	418501	N
19:22	418651	V
19:23	418898	N
19:24	419107	F
19:24	419309	N
19:25	419507	F
19:25	419707	N
19:26	419905	F
19:26	420106	N
19:27	420313	F
19:28	420517	N
19:28	420719	N
19:29	420910	N
19:29	421111	N
19:30	421310	N
19:30	421507	F
19:31	421705	N
19:31	421910	F
19:32	422115	N
19:33	422312	F
19:33	422516	N
19:34	422711	N
19:34	422906	N
19:35	423112	N
19:35	423322	N
19:36	423520	N
19:37	423724	N
19:37	423924	F
19:38	424119	N
19:38	424305	V
19:39	424524	N
19:39	424727	F
19:40	424929	N
19:40	425137	F
19:41	425329	N
19:42	425533	F
19:42	425715	N
19:43	425927	F
19:43	426133	N
19:44	426327	V
19:44	426543	N
19:45	426738	N
19:45	426934	N
19:46	427133	N
19:47	427343	N
19:47	427536	N
19:48	427739	N
19:48	427949	N
19:49	428154	N
19:49	428353	F
19:50	428549	N
19:50	428716	V
19:51	428958	N
19:52	429164	N
19:52	429367	N
19:53	429571	N
19:53	429762	N
19:54	429961	N
19:54	430163	N
19:55	430364	N
19:56	430565	N
19:56	430768	N
19:57	430977	N
19:57	431172	F
19:58	431374	N
19:58	431572	N
19:59	431781	N
19:59	431985	N
20:00	432193	N
20:01	432397	N
20:01	432605	N
20:02	432799	N
20:02	432994	N
20:03	433204	N
20:03	433399	N
20:04	433602	N
20:05	433805	N
20:05	434015	N
20:06	434210	N
20:06	434408	N
20:07	434607	N
20:07	434813	N
20:08	435019	N
20:08	435223	N
20:09	435430	N
20:10	435625	N
20:10	435824	N
20:11	436026	N
20:11	436227	N
20:12	436427	N
20:12	436633	N
20:13	436847	N
20:14	437043	N
20:14	437240	N
20:15	437443	N
20:15	437648	N
20:16	437851	N
20:16	438059	N
20:17	438261	N
20:17	438463	N
20:18	438654	N
20:19	438856	N
20:19	439061	N
20:20	439256	N
20:20	439463	N
20:21	439666	N
20:21	439869	N
20:22	440067	N
20:22	440269	N
20:23	440473	N
20:24	440675	N
20:24	440884	N
20:25	441090	N
20:25	441301	N
20:26	441494	N
20:26	441697	N
20:27	441902	N
20:28	442106	N
20:28	442302	N
20:29	442506	N
20:29	442718	N
20:30	442914	N
20:30	443112	N
20:31	443313	N
20:31	443518	N
20:32	443721	N
20:33	443927	N
20:33	444131	N
20:34	444338	N
20:34	444533	N
20:35	444734	N
20:35	444941	N
20:36	445144	N
20:37	445349	N
20:37	445555	N
20:38	445765	N
20:38	445961	N
20:39	446167	N
20:39	446367	N
20:40	446573	N
20:41	446774	N
20:41	446979	N
20:42	447185	N
20:42	447387	N
20:43	447580	N
20:43	447777	N
20:44	447989	N
20:44	448188	N
20:45	448390	N
20:46	448596	N
20:46	448805	N
20:47	449007	N
20:47	449203	N
20:48	449405	N
20:48	449617	N
20:49	449831	N
20:50	450029	N
20:50	450231	N
20:51	450431	N
20:51	450636	N
20:52	450836	N
20:52	451033	N
20:53	451240	N
20:54	451450	N
20:54	451651	N
20:55	451848	N
20:55	452055	N
20:56	452259	N
20:56	452461	N
20:57	452663	N
20:57	452871	N
20:58	453079	N
20:59	453279	N
20:59	453479	N
21:00	453689	N
21:00	453892	N
21:01	454089	N
21:01	454297	N
21:02	454510	N
21:03	454717	N
21:03	454916	N
21:04	455112	N
21:04	455318	N
21:05	455527	N
21:05	455735	N
21:06	455932	N
21:07	456137	N
21:07	456341	N
21:08	456543	N
21:08	456744	N
21:09	456944	N
21:09	457156	N
21:10	457359	N
21:11	457565	N
21:11	457761	N
21:12	457972	N
21:12	458175	N
21:13	458377	N
21:13	458591	N
21:14	458797	N
21:14	458997	N
21:15	459195	N
21:16	459394	N
21:16	459602	N
21:17	459807	N
21:17	460005	N
21:18	460206	N
21:18	460418	N
21:19	460622	N
21:20	460824	N
21:20	461021	N
21:21	461228	N
21:21	461437	N
21:22	461643	N
21:22	461843	N
21:23	462055	N
21:24	462257	N
21:24	462457	N
21:25	462661	N
21:25	462867	N
21:26	463073	N
21:26	463276	N
21:27	463487	N
21:28	463690	N
21:28	463890	N
21:29	464087	N
21:29	464299	N
21:30	464510	N
21:30	464705	N
21:31	464912	N
21:31	465115	N
21:32	465318	N
21:33	465516	N
21:33	465719	N
21:34	465929	N
21:34	466131	N
21:35	466338	N
21:35	466538	N
21:36	466751	N
21:37	466951	N
21:37	467150	N
21:38	467354	N
21:38	467570	N
21:39	467777	N
21:39	467976	N
21:40	468179	N
21:41	468374	N
21:41	468581	N
21:42	468783	N
21:42	468983	N
21:43	469189	N
21:43	469394	N
21:44	469602	N
21:44	469797	N
21:45	469995	N
21:46	470204	N
21:46	470422	N
21:47	470622	N
21:47	470822	N
21:48	471022	N
21:48	471234	N
21:49	471439	N
21:50	471634	N
21:50	471841	N
21:51	472054	N
21:51	472260	N
21:52	472458	N
21:52	472664	N
21:53	472865	N
21:54	473066	N
21:54	473268	N
21:55	473476	N
21:55	473685	N
21:56	473883	N
21:56	474074	N
21:57	474286	N
21:58	474491	N
21:58	474692	N
21:59	474898	N
21:59	475112	N
22:00	475314	N
22:00	475514	N
22:01	475709	N
22:01	475919	N
22:02	476129	N
22:03	476339	N
22:03	476538	N
22:04	476749	N
22:04	476950	N
22:05	477147	N
22:05	477349	N
22:06	477548	F
22:07	477761	N
22:07	477969	F
22:08	478169	N
22:08	478372	F
22:09	478576	N
22:09	478775	F
22:10	478977	N
22:11	479190	F
22:11	479398	N
22:12	479602	F
22:12	479799	N
22:13	480004	F
22:13	480209	N
22:14	480408	F
22:15	480614	N
22:15	480811	V
22:16	481034	N
22:16	481230	N
22:17	481437	N
22:17	481637	F
22:18	481829	N
22:18	482035	F
22:19	482247	N
22:20	482454	V
22:20	482652	N
22:21	482847	F
22:21	483046	N
22:22	483239	V
22:22	483459	N
22:23	483662	F
22:24	483866	N
22:24	484081	V
22:25	484283	N
22:25	484482	F
22:26	484679	N
22:26	484888	F
22:27	485099	N
22:28	485295	F
22:28	485498	N
22:29	485698	F
22:29	485904	N
22:30	486096	F
22:30	486295	N
22:31	486464	V
22:31	486709	N
22:32	486914	F
22:33	487113	N
22:33	487323	V
22:34	487517	N
22:34	487715	F
22:35	487919	N
22:35	488135	F
22:36	488338	N
22:37	488538	F
22:37	488735	N
22:38	488940	F
22:38	489140	N
22:39	489337	F
22:39	489547	N
22:40	489755	V
22:40	489946	N
22:41	490150	F
22:42	490360	N
22:42	490555	N
22:43	490757	N
22:43	490963	N
22:44	491172	N
22:44	491371	N
22:45	491568	N
22:46	491774	F
22:46	491977	N
22:47	492177	V
22:47	492376	N
22:48	492590	N
22:48	492800	N
22:49	492997	N
22:50	493201	N
22:50	493403	F
22:51	493601	N
22:51	493804	N
22:52	494016	N
22:52	494221	N
22:53	494420	N
22:53	494614	N
22:54	494813	N
22:55	495022	N
22:55	495217	N
22:56	495420	F
22:56	495624	N
22:57	495795	V
22:57	496031	N
22:58	496232	N
22:58	496429	N
22:59	496534	+
22:59	496639	V
23:00	496845	N
23:00	497052	V
23:01	497256	N
23:01	497460	V
23:02	497557	+
23:02	497655	N
23:02	497856	F
23:03	498062	N
23:04	498263	N
23:04	498466	N
23:05	498675	N
23:05	498879	N
23:06	499073	N
23:06	499268	N
23:07	499475	N
23:07	499677	N
23:08	499781	+
23:08	499886	V
23:09	500090	N
23:09	500262	V
23:10	500491	N
23:10	500674	V
23:11	500786	+
23:11	500898	N
23:11	501104	F
23:12	501311	N
23:13	501512	N
23:13	501716	N
23:14	501921	N
23:14	502124	N
23:15	502320	N
23:15	502521	N
23:16	502737	N
23:17	502943	N
23:17	503142	N
23:18	503334	N
23:18	503539	F
23:19	503743	N
23:19	503940	V
23:20	504147	F
23:20	504328	V
23:21	504560	N
23:22	504761	N
23:22	504960	F
23:23	505165	F
23:23	505367	N
23:24	505573	F
23:24	505780	N
23:25	505987	F
23:26	506189	N
23:26	506383	F
23:27	506587	N
23:27	506795	V
23:28	506988	N
23:28	507196	F
23:29	507402	N
23:30	507612	N
23:30	507805	N
23:31	508006	N
23:31	508205	N
23:32	508415	N
23:32	508623	N
23:33	508822	F
23:33	509027	N
23:34	509213	V
23:35	509429	N
23:35	509629	N
23:36	509835	N
23:36	510046	N
23:37	510242	N
23:37	510447	N
23:38	510650	N
23:39	510860	F
23:39	511052	N
23:40	511251	F
23:40	511461	N
23:41	511673	V
23:41	511868	N
23:42	512069	F
23:42	512264	N
23:43	512471	N
23:44	512679	N
23:44	512870	F
23:45	513074	N
23:45	513283	N
23:46	513491	N
23:46	513688	F
23:47	513894	F
23:47	514057	V
23:48	514302	N
23:49	514506	F
23:49	514710	N
23:50	514922	F
23:50	515112	N
23:51	515314	N
23:51	515518	N
23:52	515721	N
23:53	515922	N
23:53	516125	N
23:54	516335	N
23:54	516531	F
23:55	516734	N
23:55	516934	N
23:56	517133	N
23:57	517337	F
23:57	517549	N
23:58	517754	F
23:58	517950	N
23:59	518148	V
23:59	518291	A
24:00	518543	N
24:00	518744	N
24:01	518957	N
24:02	519169	N
24:02	519369	N
24:03	519567	N
24:03	519770	N
24:04	519971	N
24:04	520173	F
24:05	520382	N
24:06	520567	V
24:06	520791	N
24:07	520986	N
24:07	521188	N
24:08	521394	N
24:08	521592	N
24:09	521793	N
24:10	522002	N
24:10	522208	N
24:11	522404	N
24:11	522610	N
24:12	522817	N
24:12	523018	N
24:13	523222	N
24:13	523436	V
24:14	523636	N
24:15	523839	N
24:15	524039	N
24:16	524247	F
24:16	524449	N
24:17	524646	F
24:17	524854	N
24:18	525002	A
24:19	525252	N
24:19	525457	V
24:20	525663	N
24:20	525866	F
24:21	526065	N
24:21	526278	F
24:22	526486	N
24:23	526687	N
24:23	526883	N
24:24	527092	N
24:24	527299	N
24:25	527494	N
24:25	527698	N
24:26	527907	N
24:27	528121	N
24:27	528318	N
24:28	528524	N
24:28	528729	N
24:29	528926	N
24:29	529130	F
24:30	529339	N
24:30	529547	N
24:31	529749	N
24:32	529942	N
24:32	530139	N
24:33	530344	N
24:33	530553	N
24:34	530763	N
24:34	530963	N
24:35	531169	N
24:36	531375	N
24:36	531584	N
24:37	531781	N
24:37	531984	F
24:38	532199	N
24:38	532409	N
24:39	532613	N
24:40	532806	F
24:40	533014	N
24:41	533222	N
24:41	533418	N
24:42	533619	N
24:42	533827	N
24:43	534041	N
24:43	534233	N
24:44	534436	N
24:45	534638	N
24:45	534847	N
24:46	535051	N
24:46	535255	F
24:47	535460	N
24:47	535643	V
24:48	535873	N
24:48	536010	a
24:49	536146	V
24:50	536469	N
24:50	536684	N
24:51	536887	N
24:51	537090	N
24:52	537299	N
24:53	537494	N
24:53	537688	N
24:54	537895	N
24:54	538108	N
24:55	538307	N
24:55	538508	N
24:56	538706	N
24:56	538909	N
24:57	539110	N
24:58	539309	N
24:58	539517	N
24:59	539725	N
24:59	539932	N
25:00	540133	N
25:00	540341	N
25:01	540538	N
25:02	540746	N
25:02	540961	N
25:03	541163	N
25:03	541366	N
25:04	541572	N
25:04	541772	N
25:05	541969	N
25:06	542176	N
25:06	542376	N
25:07	542580	N
25:07	542787	N
25:08	542989	N
25:08	543195	N
25:09	543389	N
25:09	543592	N
25:10	543801	N
25:11	544009	N
25:11	544217	N
25:12	544421	N
25:12	544621	N
25:13	544827	N
25:13	545034	N
25:14	545230	N
25:15	545438	N
25:15	545650	N
25:16	545854	N
25:16	546056	N
25:17	546259	N
25:17	546460	N
25:18	546662	N
25:19	546873	N
25:19	547080	N
25:20	547282	N
25:20	547478	N
25:21	547684	N
25:21	547893	N
25:22	548088	N
25:23	548295	N
25:23	548508	N
25:24	548720	N
25:24	548918	N
25:25	549124	N
25:25	549331	N
25:26	549535	N
25:27	549742	N
25:27	549952	N
25:28	550162	N
25:28	550361	N
25:29	550557	N
25:29	550754	N
25:30	550965	N
25:31	551171	N
25:31	551371	N
25:32	551577	N
25:32	551783	N
25:33	551992	N
25:33	552188	N
25:34	552386	N
25:34	552592	N
25:35	552811	N
25:36	553018	N
25:36	553219	N
25:37	553414	N
25:37	553617	N
25:38	553833	N
25:38	554036	N
25:39	554240	N
25:40	554444	N
25:40	554654	N
25:41	554862	N
25:41	555061	N
25:42	555257	N
25:42	555467	N
25:43	555681	N
25:44	555879	N
25:44	556083	N
25:45	556283	N
25:45	556492	N
25:46	556690	N
25:46	556895	N
25:47	557103	N
25:48	557307	N
25:48	557521	N
25:49	557727	N
25:49	557928	N
25:50	558124	N
25:50	558331	N
25:51	558548	N
25:52	558753	N
25:52	558957	N
25:53	559158	N
25:53	559363	N
25:54	559564	N
25:54	559765	N
25:55	559965	N
25:56	560174	N
25:56	560387	N
25:57	560585	N
25:57	560786	N
25:58	560986	N
25:58	561196	N
25:59	561408	N
26:00	561616	N
26:00	561823	N
26:01	562031	N
26:01	562227	N
26:02	562427	N
26:02	562631	N
26:03	562838	N
26:04	563047	N
26:04	563186	a
26:04	563322	a
26:05	563558	N
26:06	563799	N
26:06	563996	N
26:07	564201	N
26:07	564414	N
26:08	564624	N
26:08	564827	N
26:09	565024	N
26:10	565221	N
26:10	565423	N
26:11	565635	N
26:11	565837	N
26:12	566039	N
26:12	566244	N
26:13	566454	N
26:14	566654	N
26:14	566857	N
26:15	567055	N
26:15	567267	N
26:16	567483	N
26:16	567683	N
26:17	567883	N
26:18	568084	N
26:18	568287	N
26:19	568489	N
26:19	568689	N
26:20	568898	N
26:20	569100	N
26:21	569308	N
26:21	569512	N
26:22	569720	N
26:23	569916	N
26:23	570118	N
26:24	570332	N
26:24	570545	N
26:25	570746	N
26:25	570946	N
26:26	571148	N
26:27	571356	N
26:27	571558	N
26:28	571760	N
26:28	571973	N
26:29	572164	F
26:29	572376	N
26:30	572580	N
26:31	572787	N
26:31	572988	N
26:32	573189	N
26:32	573398	N
26:33	573603	N
26:33	573814	N
26:34	574012	N
26:35	574211	N
26:35	574416	N
26:36	574623	N
26:36	574837	N
26:37	575037	N
26:37	575245	N
26:38	575442	N
26:39	575648	N
26:39	575854	N
26:40	576060	N
26:40	576267	N
26:41	576467	N
26:41	576678	N
26:42	576883	N
26:43	577082	N
26:43	577280	F
26:44	577485	N
26:44	577591	+
26:44	577697	V
26:45	577901	N
26:45	578090	V
26:46	578305	N
26:46	578495	V
26:47	578609	+
26:47	578723	N
26:48	578923	N
26:48	579130	N
26:49	579345	F
26:49	579555	N
26:50	579751	F
26:50	579948	N
26:51	580154	F
26:52	580366	N
26:52	580562	F
26:53	580766	N
26:53	580973	V
26:54	581182	N
26:54	581388	F
26:55	581581	N
26:56	581781	F
26:56	581998	N
26:57	582212	F
26:57	582408	N
26:58	582615	V
26:58	582816	N
26:59	583016	V
27:00	583225	N
27:00	583424	F
27:01	583629	N
27:01	583838	V
27:02	584049	N
27:02	584244	V
27:03	584444	N
27:03	584612	V
27:04	584764	V
27:05	585070	N
27:05	585271	N
27:06	585473	N
27:06	585679	N
27:07	585883	N
27:07	586079	N
27:08	586280	V
27:09	586495	N
27:09	586699	N
27:10	586903	N
27:10	587087	V
27:11	587315	N
27:11	587513	N
27:12	587715	N
27:13	587929	N
27:13	588139	N
27:14	588338	N
27:14	588535	N
27:15	588734	N
27:15	588940	V
27:16	589149	N
27:17	589342	N
27:17	589544	N
27:18	589735	V
27:18	589963	N
27:19	590170	N
27:19	590363	N
27:20	590564	N
27:21	590777	N
27:21	590987	N
27:22	591157	V
27:22	591388	N
27:23	591592	N
27:23	591789	N
27:24	591990	N
27:24	592193	N
27:25	592404	N
27:26	592570	V
27:26	592811	N
27:27	593016	N
27:27	593213	N
27:28	593411	N
27:28	593619	N
27:29	593826	N
27:30	594026	N
27:30	594230	N
27:31	594432	F
27:31	594627	N
27:32	594828	N
27:32	595039	N
27:33	595235	N
27:33	595436	N
27:34	595646	V
27:35	595853	N
27:35	596053	N
27:36	596251	N
27:36	596457	V
27:37	596667	N
27:37	596875	F
27:38	597073	N
27:39	597276	F
27:39	597481	N
27:40	597686	F
27:40	597886	N
27:41	598082	F
27:41	598295	N
27:42	598501	N
27:43	598702	N
27:43	598853	A
27:44	599094	N
27:44	599302	F
27:45	599501	N
27:45	599717	N
27:46	599923	N
27:47	600125	N
27:47	600325	N
27:48	600533	N
27:48	600734	N
27:49	600936	N
27:49	601139	N
27:50	601350	N
27:51	601561	N
27:51	601760	N
27:52	601965	N
27:52	602170	N
27:53	602365	N
27:53	602571	V
27:54	602782	N
27:54	602988	N
27:55	603189	N
27:56	603363	V
27:56	603580	N
27:57	603789	F
27:57	603994	N
27:58	604202	N
27:58	604401	N
27:59	604606	N
28:00	604809	N
28:00	605020	N
28:01	605222	N
28:01	605426	N
28:02	605639	N
28:02	605847	N
28:03	606051	N
28:03	606232	V
28:04	606458	N
28:05	606639	V
28:05	606859	N
28:06	607072	N
28:06	607273	N
28:07	607479	N
28:07	607679	N
28:08	607890	N
28:09	608085	N
28:09	608291	N
28:10	608501	N
28:10	608704	F
28:11	608909	N
28:11	609098	V
28:12	609323	N
28:13	609521	N
28:13	609730	N
28:14	609910	V
28:14	610138	N
28:15	610344	N
28:15	610550	N
28:16	610759	N
28:17	610952	N
28:17	611151	N
28:18	611362	N
28:18	611574	N
28:19	611769	N
28:19	611972	N
28:20	612172	N
28:21	612381	F
28:21	612580	N
28:22	612759	V
28:22	612987	N
28:23	613202	N
28:23	613410	N
28:24	613606	V
28:24	613790	N
28:25	614021	N
28:26	614224	N
28:26	614433	N
28:27	614643	N
28:27	614844	N
28:28	615047	N
28:29	615251	N
28:29	615447	N
28:30	615652	F
28:30	615854	N
28:31	616062	F
28:31	616262	N
28:32	616449	V
28:32	616672	N
28:33	616873	V
28:34	617073	N
28:34	617283	F
28:35	617497	N
28:35	617696	N
28:36	617902	N
28:36	618105	N
28:37	618303	N
28:38	618508	N
28:38	618710	N
28:39	618921	N
28:39	619122	N
28:40	619329	F
28:40	619534	N
28:41	619735	F
28:42	619931	N
28:42	620121	V
28:43	620353	N
28:43	620555	N
28:44	620759	N
28:44	620960	N
28:45	621166	N
28:46	621368	N
28:46	621565	N
28:47	621772	N
28:47	621984	N
28:48	622192	N
28:48	622390	N
28:49	622593	F
28:49	622799	N
28:50	622969	V
28:51	623212	N
28:51	623419	F
28:52	623625	N
28:52	623832	N
28:53	624029	N
28:53	624225	N
28:54	624433	N
28:55	624636	N
28:55	624839	N
28:56	625043	N
28:56	625249	N
28:57	625449	N
28:57	625650	N
28:58	625852	N
28:59	626059	N
28:59	626275	N
29:00	626475	N
29:00	626680	F
29:01	626885	N
29:01	627089	F
29:02	627291	N
29:03	627490	V
29:03	627706	N
29:04	627914	N
29:04	628119	N
29:05	628324	N
29:05	628524	N
29:06	628724	N
29:07	628933	N
29:07	629140	N
29:08	629348	N
29:08	629557	N
29:09	629750	N
29:09	629957	N
29:10	630161	N
29:10	630316	A
29:11	630563	N
29:12	630775	N
29:12	630982	N
29:13	631182	N
29:13	631393	N
29:14	631594	N
29:14	631795	N
29:15	632007	N
29:16	632216	N
29:16	632419	N
29:17	632622	N
29:17	632828	V
29:18	633025	N
29:18	633226	V
29:19	633440	N
29:20	633646	N
29:20	633852	N
29:21	634057	N
29:21	634264	N
29:22	634458	N
29:22	634662	N
29:23	634871	N
29:24	635079	N
29:24	635283	N
29:25	635496	N
29:25	635699	V
29:26	635894	N
29:26	636081	V
29:27	636305	N
29:28	636519	N
29:28	636722	N
29:29	636925	N
29:29	637131	N
29:30	637331	N
29:30	637527	N
29:31	637731	N
29:32	637945	N
29:32	638149	N
29:33	638353	N
29:33	638539	N
29:34	638759	N
29:34	638965	N
29:35	639162	N
29:36	639370	V
29:36	639583	N
29:37	639795	F
29:37	639994	N
29:38	640200	F
29:38	640401	N
29:39	640604	N
29:40	640812	N
29:40	641026	N
29:41	641232	N
29:41	641428	N
29:42	641632	N
29:42	641834	N
29:43	642035	N
29:43	642234	N
29:44	642445	N
29:45	642657	N
29:45	642855	N
29:46	643055	F
29:46	643257	N
29:47	643430	V
29:47	643670	N
29:48	643881	F
29:49	644087	N
29:49	644295	N
29:50	644490	N
29:50	644688	N
29:51	644901	N
29:51	645105	N
29:52	645311	N
29:53	645512	N
29:53	645722	N
29:54	645924	N
29:54	646120	N
29:55	646318	N
29:55	646529	N
29:56	646741	N
29:57	646939	N
29:57	647147	N
29:58	647347	N
29:58	647546	F
29:59	647748	N
29:59	647953	N
30:00	648163	N
30:01	648366	N
30:01	648519	A
30:02	648762	N
30:02	648974	N
30:03	649174	N
30:03	649374	N
30:04	649577	N
30:04	649790	N
30:05	649992	N
