0:00	58	L
0:00	346	L
0:01	660	L
0:02	975	L
0:03	1290	L
0:04	1607	L
0:05	1905	L
0:05	2135	V
0:06	2479	L
0:07	2757	L
0:08	3073	L
0:08	3235	V
0:10	3694	L
0:11	3972	L
0:11	4231	L
0:12	4494	L
0:13	4767	L
0:14	5042	L
0:14	5321	L
0:15	5638	L
0:16	5960	L
0:17	6229	L
0:18	6489	L
0:18	6751	L
0:19	7032	L
0:20	7326	L
0:21	7621	L
0:21	7910	L
0:22	8210	L
0:23	8486	L
0:24	8743	L
0:25	9012	L
0:25	9293	L
0:26	9590	L
0:27	9900	L
0:28	10197	L
0:29	10473	L
0:29	10751	L
0:30	11018	L
0:31	11289	L
0:32	11571	L
0:32	11864	L
0:33	12167	L
0:34	12464	L
0:35	12666	V
0:36	13004	L
0:36	13273	L
0:37	13556	L
0:38	13839	L
0:39	14130	L
0:40	14427	L
0:40	14714	L
0:41	14993	L
0:42	15263	L
0:43	15528	L
0:43	15822	L
0:44	16130	L
0:45	16434	L
0:46	16731	L
0:47	17008	L
0:47	17278	L
0:48	17541	L
0:49	17810	L
0:50	18085	L
0:51	18390	L
0:51	18695	L
0:52	18988	L
0:53	19270	L
0:54	19542	L
0:55	19827	L
0:55	20117	L
0:56	20409	L
0:57	20706	L
0:58	21013	L
0:59	21288	L
0:59	21548	L
1:00	21809	L
1:01	22078	L
1:02	22373	L
1:02	22679	L
1:03	22977	L
1:04	23259	L
1:05	23534	L
1:06	23792	L
1:06	24044	L
1:07	24312	L
1:08	24591	L
1:09	24897	L
1:10	25261	L
1:10	25544	L
1:11	25807	L
1:12	26080	L
1:13	26347	L
1:13	26617	L
1:14	26900	L
1:15	27192	L
1:16	27496	L
1:16	27619	~
1:17	27778	L
1:17	27869	~
1:17	28035	L
1:18	28113	+
1:18	28191	V
1:19	28573	L
1:20	28858	L
1:20	29079	V
1:21	29231	~
1:21	29436	L
1:22	29714	L
1:22	29808	~
1:22	29866	V
1:23	30234	L
1:24	30478	L
1:25	30645	V
1:26	31003	L
1:26	31291	L
1:27	31486	V
1:27	31665	+
1:28	31844	L
1:29	32094	L
1:29	32332	L
1:30	32567	L
1:31	32813	L
1:31	33068	L
1:32	33328	L
1:33	33538	V
1:34	33957	L
1:35	34218	L
1:35	34479	L
1:36	34741	L
1:37	35021	L
1:38	35304	L
1:38	35594	L
1:39	35877	L
1:40	36171	L
1:41	36451	L
1:41	36715	L
1:42	36974	L
1:43	37237	L
1:44	37523	L
1:45	37812	L
1:45	38094	L
1:46	38360	L
1:47	38627	L
1:47	38876	L
1:48	39125	L
1:49	39381	L
1:50	39650	L
1:50	39936	L
1:51	40246	L
1:52	40398	V
1:53	40814	L
1:54	41083	L
1:54	41362	L
1:55	41644	L
1:56	41927	L
1:57	42234	L
1:57	42388	V
1:59	42865	L
1:59	43139	L
2:00	43409	L
2:01	43709	L
2:02	44006	L
2:03	44312	L
2:03	44623	L
2:04	44778	V
2:05	45214	L
2:06	45484	L
2:07	45759	L
2:07	45897	V
2:08	46371	L
2:09	46681	L
2:10	46986	L
2:10	47132	V
2:12	47535	L
2:12	47806	L
2:13	48083	L
2:14	48365	L
2:15	48657	L
2:16	48973	L
2:16	49254	L
2:17	49508	L
2:18	49753	L
2:18	50016	L
2:19	50211	|
2:19	50287	L
2:20	50581	L
2:21	50881	L
2:22	51177	L
2:22	51472	L
2:23	51614	V
2:24	52011	L
2:25	52273	L
2:25	52537	L
2:26	52826	L
2:27	53114	L
2:28	53312	V
2:29	53667	L
2:29	53926	L
2:30	54186	L
2:31	54438	L
2:31	54707	L
2:32	54989	L
2:33	55281	L
2:34	55582	L
2:35	55869	L
2:35	55999	V
2:36	56435	L
2:37	56722	L
2:38	56928	V
2:39	57342	L
2:40	57641	L
2:40	57937	L
2:41	58096	V
2:41	58244	V
2:43	58698	L
2:43	58990	L
2:44	59284	L
2:45	59569	L
2:46	59856	L
2:47	60126	L
2:47	60391	L
2:48	60657	L
2:48	60830	V
2:50	61236	L
2:50	61544	L
2:51	61861	L
2:52	62098	V
2:53	62452	L
2:54	62721	L
2:54	62924	V
2:55	63296	L
2:56	63579	L
2:57	63890	L
2:58	64204	L
2:59	64489	L
2:59	64764	L
3:00	65036	L
3:01	65329	L
3:02	65636	L
3:03	65950	L
3:04	66276	L
3:04	66592	L
3:05	66877	L
3:06	67152	L
3:07	67434	L
3:07	67582	V
3:09	68060	L
3:09	68365	L
3:10	68654	L
3:11	68936	L
3:12	69200	L
3:12	69332	V
3:13	69730	L
3:14	70009	L
3:15	70296	L
3:16	70584	L
3:16	70852	L
3:17	71102	L
3:18	71352	L
3:18	71516	V
3:19	71861	L
3:20	72119	L
3:21	72389	L
3:21	72660	L
3:22	72925	L
3:23	73099	V
3:23	73411	L
3:24	73645	L
3:25	73898	L
3:25	74147	L
3:26	74407	L
3:27	74661	L
3:28	74924	L
3:28	75174	L
3:29	75422	L
3:30	75658	L
3:30	75897	L
3:31	76155	L
3:32	76338	V
3:33	76757	L
3:34	77048	L
3:34	77341	L
3:35	77617	L
3:36	77886	L
3:37	78157	L
3:37	78383	V
3:38	78717	L
3:39	79027	L
3:40	79327	L
3:40	79503	V
3:41	79867	L
3:42	80121	L
3:43	80399	L
3:44	80679	L
3:44	80827	V
3:45	81259	L
3:46	81559	L
3:47	81833	L
3:48	82089	L
3:48	82347	L
3:49	82494	V
3:50	82906	L
3:51	83209	L
3:51	83503	L
3:52	83780	L
3:53	84058	L
3:54	84326	L
3:54	84595	L
3:55	84872	L
3:56	85168	L
3:57	85483	L
3:58	85807	L
3:59	86101	L
3:59	86240	V
4:00	86412	V
4:01	86921	L
4:02	87216	L
4:02	87461	|
4:03	87512	L
4:03	87804	L
4:04	88098	L
4:05	88377	L
4:06	88642	L
4:06	88905	L
4:07	89194	L
4:08	89485	L
4:09	89776	L
4:10	90061	L
4:10	90338	L
4:11	90597	L
4:12	90855	L
4:13	91106	L
4:13	91176	+
4:13	91247	V
4:14	91627	L
4:15	91913	L
4:15	92063	V
4:16	92452	L
4:17	92701	L
4:17	92832	V
4:18	93198	L
4:19	93462	L
4:20	93610	V
4:20	93819	+
4:21	94028	L
4:22	94336	L
4:22	94634	L
4:23	94896	L
4:24	95164	L
4:25	95434	L
4:25	95729	L
4:26	96040	L
4:27	96349	L
4:28	96505	V
4:29	96973	L
4:30	97255	L
4:30	97540	L
4:31	97711	V
4:32	98166	L
4:33	98489	L
4:34	98802	L
4:35	99092	L
4:35	99235	V
4:36	99667	L
4:37	99950	L
4:38	100246	L
4:39	100545	L
4:40	100867	L
4:41	101163	L
4:41	101441	L
4:42	101725	L
4:43	102021	L
4:44	102320	L
4:45	102624	L
4:45	102931	L
4:46	103242	L
4:47	103525	L
4:48	103782	L
4:49	104049	L
4:49	104341	L
4:50	104635	L
4:51	104938	L
4:52	105244	L
4:53	105528	L
4:53	105815	L
4:54	106096	L
4:55	106382	L
4:56	106560	V
4:56	106750	V
4:58	107306	L
4:58	107609	L
4:59	107790	V
5:00	108162	L
5:01	108447	L
5:01	108718	L
5:02	108995	L
5:03	109287	L
5:04	109584	L
5:05	109857	L
5:05	110106	L
5:06	110367	L
5:07	110637	L
5:08	110931	L
5:09	111241	L
5:09	111544	L
5:10	111860	L
5:11	112157	L
5:12	112433	L
5:12	112575	V
5:14	113050	Q
5:14	113293	"
5:15	113585	Q
5:16	114075	L
5:17	114360	L
5:18	114646	L
5:19	114953	L
5:20	115274	L
5:20	115419	V
5:21	115894	L
5:22	116196	L
5:23	116483	L
5:23	116621	V
5:25	117028	L
5:25	117310	L
5:26	117614	L
5:27	117908	L
5:28	118193	L
5:29	118477	L
5:29	118753	L
5:30	119024	L
5:31	119303	L
5:31	119477	V
5:33	119897	L
5:33	120207	L
5:34	120509	L
5:35	120776	L
5:36	121047	L
5:37	121325	L
5:37	121613	L
5:38	121910	L
5:39	122207	L
5:40	122522	L
5:41	122824	L
5:41	123097	L
5:42	123155	+
5:42	123234	V
5:42	123408	V
5:43	123530	V
5:44	123977	+
5:44	124072	L
5:45	124377	L
5:46	124673	L
5:47	124955	L
5:47	125223	L
5:48	125305	+
5:48	125388	V
5:49	125748	L
5:50	126025	L
5:50	126229	V
5:51	126612	L
5:52	126899	L
5:52	127075	V
5:53	127250	+
5:53	127426	L
5:54	127683	L
5:55	127947	L
5:56	128205	L
5:56	128482	L
5:57	128757	L
5:58	128947	V
5:59	129334	L
5:59	129585	L
6:00	129714	V
6:01	130130	L
6:02	130416	L
6:03	130710	L
6:03	131000	L
6:04	131291	L
6:05	131574	L
6:06	131856	L
6:07	132135	L
6:07	132420	L
6:08	132752	L
6:09	133086	L
6:10	133402	L
6:11	133702	L
6:12	133984	L
6:12	134126	V
6:13	134606	L
6:14	134919	L
6:15	135267	L
6:16	135590	L
6:17	135870	L
6:18	136140	L
6:18	136405	L
6:19	136681	L
6:20	136962	L
6:21	137249	L
6:22	137536	L
6:22	137832	L
6:23	138095	L
6:24	138344	L
6:25	138605	L
6:25	138877	L
6:26	139179	L
6:27	139491	L
6:28	139798	L
6:29	140098	L
6:29	140391	L
6:30	140532	V
6:31	140972	L
6:32	141280	L
6:33	141608	L
6:33	141814	V
6:35	142251	L
6:35	142548	L
6:36	142838	L
6:37	143134	L
6:38	143438	L
6:39	143751	L
6:40	144079	L
6:41	144399	L
6:41	144682	L
6:42	144819	V
6:43	145286	L
6:44	145600	L
6:45	145916	L
6:46	146227	L
6:47	146527	L
6:47	146816	L
6:48	147089	L
6:49	147372	L
6:49	147571	V
6:51	148014	L
6:52	148328	L
6:52	148625	L
6:53	148781	V
6:54	149183	L
6:55	149469	L
6:55	149751	L
6:56	150041	L
6:57	150364	L
6:58	150677	L
6:59	150966	L
7:00	151250	L
7:00	151540	L
7:01	151848	L
7:02	152164	L
7:03	152468	L
7:04	152650	|
7:04	152789	L
7:05	153086	L
7:05	153232	V
7:06	153641	L
7:07	153928	L
7:08	154222	L
7:09	154529	L
7:10	154825	L
7:10	155099	L
7:11	155363	L
7:12	155617	L
7:12	155867	L
7:13	156035	V
7:14	156372	L
7:15	156632	L
7:15	156908	L
7:16	157188	L
7:17	157447	L
7:18	157695	L
7:18	157962	L
7:19	158244	L
7:20	158537	L
7:21	158843	L
7:22	159155	L
7:22	159465	L
7:23	159614	V
7:24	160047	L
7:25	160343	L
7:26	160663	L
7:26	160845	V
7:28	161291	L
7:28	161592	L
7:29	161872	L
7:30	162138	L
7:31	162401	L
7:31	162670	L
7:32	162873	V
7:33	163303	L
7:34	163621	L
7:35	163925	L
7:36	164210	L
7:36	164496	L
7:37	164799	L
7:38	164956	V
7:39	165412	L
7:40	165739	L
7:41	166033	L
7:41	166293	L
7:42	166557	L
7:43	166720	V
7:44	167129	L
7:45	167441	L
7:45	167736	L
7:46	167898	|
7:46	168034	L
7:47	168309	L
7:48	168575	L
7:48	168740	V
7:49	169123	L
7:50	169413	L
7:51	169712	L
7:52	170001	L
7:52	170268	L
7:53	170526	L
7:54	170777	L
7:55	171035	L
7:55	171292	L
7:56	171484	V
7:57	171847	L
7:58	172139	L
7:58	172425	L
7:59	172685	L
8:00	172819	V
8:01	173230	L
8:01	173507	L
8:02	173798	L
8:03	174098	L
8:04	174399	L
8:05	174690	L
8:06	174963	L
8:06	175229	L
8:07	175523	L
8:08	175842	L
8:09	176161	L
8:10	176470	L
8:11	176786	L
8:11	177079	L
8:12	177374	L
8:13	177676	L
8:14	177988	L
8:14	178155	V
8:16	178655	L
8:16	178855	V
8:17	179230	L
8:18	179500	L
8:19	179777	L
8:20	180058	L
8:20	180342	L
8:21	180640	L
8:22	180809	|
8:22	180933	L
8:23	181208	L
8:23	181348	V
8:24	181730	L
8:25	182004	L
8:26	182290	L
8:27	182571	L
8:27	182844	L
8:28	183124	L
8:29	183386	L
8:30	183634	L
8:30	183873	L
8:31	184047	V
8:32	184389	L
8:32	184667	L
8:33	184942	L
8:34	185210	L
8:35	185464	L
8:35	185720	L
8:36	185966	L
8:37	186228	L
8:38	186505	L
8:38	186796	L
8:39	187107	L
8:40	187420	L
8:41	187699	L
8:42	187965	L
8:42	188246	L
8:43	188521	L
8:44	188802	L
8:45	189088	L
8:46	189372	L
8:46	189651	L
8:47	189918	L
8:48	190163	L
8:48	190323	V
8:49	190674	L
8:50	190957	L
8:51	191239	L
8:51	191514	L
8:52	191786	L
8:53	191950	V
8:54	192300	L
8:54	192556	L
8:55	192822	L
8:56	193092	L
8:57	193395	L
8:57	193577	V
8:58	193986	L
8:59	194255	L
9:00	194523	L
9:01	194800	L
9:01	195090	L
9:02	195178	+
9:02	195266	V
9:03	195671	L
9:04	195989	L
9:04	196175	V
9:05	196534	L
9:06	196795	L
9:07	196970	V
9:08	197344	L
9:08	197626	L
9:09	197819	V
9:09	197999	+
9:10	198179	L
9:11	198452	L
9:11	198702	L
9:12	198943	L
9:13	199194	L
9:13	199370	V
9:14	199724	L
9:15	200005	L
9:16	200274	L
9:17	200523	L
9:17	200764	L
9:18	200935	V
9:19	201266	L
9:19	201511	L
9:20	201776	L
9:21	202044	L
9:22	202324	L
9:22	202519	V
9:23	202863	L
9:24	203108	L
9:24	203247	V
9:25	203653	L
9:26	203936	L
9:27	204225	L
9:28	204517	L
9:28	204810	L
9:29	205078	L
9:30	205335	L
9:31	205591	L
9:31	205871	L
9:32	206168	L
9:33	206470	L
9:34	206752	L
9:35	207022	L
9:35	207276	L
9:36	207526	L
9:37	207774	L
9:37	208025	L
9:38	208292	L
9:39	208580	L
9:40	208856	L
9:40	209110	L
9:41	209351	L
9:42	209581	L
9:42	209822	L
9:43	210086	L
9:44	210344	L
9:45	210607	L
9:45	210893	L
9:46	211184	L
9:47	211450	L
9:48	211697	L
9:48	211958	L
9:49	212226	L
9:49	212397	V
9:51	212826	L
9:51	213107	L
9:52	213412	L
9:53	213690	L
9:54	213951	L
9:55	214221	L
9:55	214502	L
9:56	214803	L
9:57	215115	L
9:58	215411	L
9:59	215689	L
9:59	215968	L
10:00	216242	L
10:01	216515	L
10:02	216798	L
10:03	217091	L
10:03	217391	L
10:04	217692	L
10:05	217967	L
10:06	218226	L
10:06	218509	L
10:07	218710	V
10:08	219087	L
10:09	219383	L
10:10	219675	L
10:11	219968	L
10:11	220237	L
10:12	220501	L
10:13	220776	L
10:14	221077	L
10:14	221388	L
10:15	221686	L
10:16	221994	L
10:17	222286	L
10:18	222570	L
10:19	222856	L
10:19	223147	L
10:20	223463	L
10:21	223628	V
10:22	224117	L
10:23	224414	L
10:24	224690	L
10:24	224981	L
10:25	225279	L
10:26	225428	V
10:27	225908	L
10:28	226234	L
10:29	226529	L
10:29	226665	V
10:30	227094	L
10:31	227376	L
10:32	227692	L
10:33	227997	L
10:34	228309	L
10:35	228617	L
10:35	228900	L
10:36	229180	L
10:37	229463	L
10:38	229765	L
10:39	230080	L
10:40	230403	L
10:40	230708	L
10:41	230990	L
10:42	231280	L
10:42	231418	V
10:44	231861	L
10:44	232167	L
10:45	232460	L
10:45	232551	+
10:46	232643	V
10:47	233054	L
10:48	233312	L
10:48	233503	V
10:49	233868	L
10:50	234154	L
10:50	234340	V
10:52	234742	L
10:52	235022	L
10:53	235192	V
10:54	235560	L
10:55	235813	L
10:55	235979	V
10:56	236178	+
10:56	236377	L
10:57	236673	L
10:58	236959	L
10:59	237240	L
10:59	237498	L
11:00	237757	L
11:01	238024	L
11:01	238289	L
11:02	238578	L
11:03	238779	V
11:04	239216	L
11:05	239491	L
11:06	239768	L
11:06	240040	L
11:07	240337	L
11:08	240637	L
11:09	240946	L
11:10	241273	L
11:11	241590	L
11:11	241878	L
11:12	242015	V
11:13	242482	L
11:14	242810	L
11:15	243148	L
11:16	243476	L
11:17	243804	L
11:18	244100	L
11:18	244388	L
11:19	244687	L
11:20	244832	V
11:21	245346	L
11:22	245662	L
11:23	245952	L
11:23	246228	L
11:24	246503	L
11:25	246788	L
11:26	247079	L
11:26	247240	V
11:28	247709	L
11:28	248013	L
11:29	248293	L
11:30	248562	L
11:31	248854	L
11:31	249022	V
11:32	249440	L
11:33	249731	L
11:34	250028	L
11:35	250310	L
11:36	250573	L
11:36	250832	L
11:37	251106	L
11:38	251412	L
11:39	251716	L
11:40	252008	L
11:40	252311	L
11:41	252590	L
11:42	252874	L
11:42	253014	V
11:44	253451	L
11:44	253766	L
11:45	254082	L
11:46	254245	V
11:47	254664	L
11:48	254932	L
11:48	255201	L
11:49	255481	L
11:50	255754	L
11:50	255899	V
11:52	256329	L
11:52	256616	L
11:53	256875	L
11:54	257128	L
11:54	257389	L
11:55	257659	L
11:56	257952	L
11:57	258244	L
11:58	258534	L
11:58	258691	V
11:59	259125	L
12:00	259393	L
12:01	259669	L
12:02	259954	L
12:02	260256	L
12:03	260566	L
12:04	260870	L
12:05	261153	L
12:06	261438	L
12:06	261715	L
12:07	261999	L
12:08	262296	L
12:09	262598	L
12:10	262911	L
12:11	263205	L
12:11	263471	L
12:12	263735	L
12:13	263882	V
12:14	264313	L
12:14	264599	L
12:15	264889	L
12:16	265180	L
12:17	265462	L
12:18	265726	L
12:18	265993	L
12:19	266269	L
12:20	266574	L
12:21	266891	L
12:22	267194	L
12:23	267500	L
12:23	267781	L
12:24	268065	L
12:25	268357	L
12:26	268650	L
12:27	268975	L
12:28	269305	L
12:28	269620	L
12:29	269918	L
12:30	270201	L
12:31	270511	L
12:32	270830	L
12:33	271152	L
12:34	271481	L
12:35	271815	L
12:35	272108	L
12:36	272399	L
12:37	272703	L
12:38	272901	V
12:39	273377	L
12:40	273695	L
12:41	274011	L
12:41	274306	L
12:42	274448	V
12:43	274874	L
12:44	275171	L
12:45	275472	L
12:46	275778	L
12:46	276066	L
12:47	276331	L
12:48	276606	L
12:49	276881	L
12:49	277147	L
12:50	277439	L
12:51	277733	L
12:51	277894	V
12:53	278326	L
12:53	278588	L
12:54	278848	L
12:55	279132	L
12:56	279415	L
12:56	279700	L
12:57	279997	L
12:58	280292	L
12:59	280585	L
12:59	280722	V
13:00	281134	L
13:01	281422	L
13:02	281607	V
13:03	282045	L
13:04	282338	L
13:05	282628	L
13:05	282908	L
13:06	283183	L
13:07	283468	L
13:07	283607	V
13:09	284096	L
13:10	284410	L
13:10	284717	L
13:11	285001	L
13:12	285280	L
13:12	285446	V
13:14	285879	L
13:14	286176	L
13:15	286506	L
13:16	286821	L
13:17	287109	L
13:18	287391	L
13:19	287676	L
13:19	287853	V
13:20	288318	L
13:21	288630	L
13:22	288948	L
13:23	289247	L
13:24	289527	L
13:25	289803	L
13:25	290094	L
13:26	290250	V
13:27	290724	L
13:28	291028	L
13:29	291307	L
13:29	291588	L
13:30	291854	L
13:31	291996	V
13:32	292393	L
13:32	292672	L
13:33	292959	L
13:34	293243	L
13:35	293509	L
13:36	293763	L
13:36	294026	L
13:37	294302	L
13:38	294580	L
13:39	294866	L
13:39	295162	L
13:40	295459	L
13:41	295755	L
13:41	295893	V
13:43	296328	L
13:43	296630	L
13:44	296942	L
13:45	297241	L
13:46	297549	L
13:46	297717	V
13:48	298143	L
13:48	298427	L
13:49	298713	L
13:50	299019	L
13:51	299186	V
13:52	299662	L
13:53	299947	L
13:53	300228	L
13:54	300510	L
13:55	300800	L
13:56	301096	L
13:57	301397	L
13:57	301494	+
13:57	301557	V
13:58	301770	V
13:58	301911	V
13:59	302310	+
14:00	302402	L
14:00	302670	L
14:01	302948	L
14:02	303238	L
14:03	303523	L
14:03	303713	V
14:04	304094	L
14:05	304362	L
14:06	304626	L
14:06	304875	L
14:07	305140	L
14:08	305409	L
14:09	305702	L
14:09	305992	L
14:10	306280	L
14:11	306559	L
14:11	306704	V
14:12	306879	V
14:13	307342	L
14:14	307637	L
14:15	307939	L
14:16	308254	L
14:17	308546	L
14:17	308819	L
14:18	309012	V
14:19	309422	L
14:20	309719	L
14:21	310037	L
14:22	310351	L
14:22	310511	V
14:23	310977	L
14:24	311258	L
14:25	311558	L
14:26	311876	L
14:27	312196	L
14:28	312511	L
14:28	312825	L
14:29	313123	L
14:30	313412	L
14:31	313706	L
14:31	313849	V
14:33	314343	L
14:34	314651	L
14:34	314938	L
14:35	315207	L
14:36	315477	L
14:37	315756	L
14:37	316037	L
14:38	316214	V
14:39	316643	L
14:40	316950	L
14:40	317130	V
14:41	317498	L
14:42	317760	L
14:43	318032	L
14:44	318304	L
14:44	318588	L
14:45	318873	L
14:46	319172	L
14:47	319447	L
14:48	319703	L
14:48	319839	V
14:49	320236	L
14:50	320524	L
14:51	320820	L
14:51	321116	L
14:52	321412	L
14:53	321702	L
14:54	321984	L
14:55	322275	L
14:56	322580	L
14:56	322898	L
14:57	323237	L
14:58	323561	L
14:59	323863	L
15:00	324030	V
15:01	324503	L
15:02	324814	L
15:03	325146	L
15:03	325341	V
15:05	325824	L
15:05	326116	L
15:06	326402	L
15:07	326721	L
15:08	327033	L
15:09	327342	L
15:10	327660	L
15:10	327806	V
15:11	328260	L
15:12	328533	L
15:13	328808	L
15:13	328961	V
15:15	329422	L
15:15	329714	L
15:16	330008	L
15:17	330291	L
15:18	330564	L
15:19	330843	L
15:19	331118	L
15:20	331390	L
15:21	331681	L
15:22	331972	L
15:22	332246	L
15:23	332504	L
15:24	332762	L
15:25	333022	L
15:25	333303	L
15:26	333595	L
15:27	333749	V
15:28	334200	L
15:29	334496	L
15:29	334772	L
15:30	335044	L
15:31	335333	L
15:32	335535	V
15:33	335952	L
15:34	336265	L
15:34	336567	L
15:35	336869	L
15:36	337157	L
15:37	337447	L
15:38	337757	L
15:39	338084	L
15:40	338427	L
15:40	338610	V
15:41	339072	L
15:42	339382	L
15:43	339700	L
15:44	340009	L
15:44	340191	V
15:46	340687	L
15:47	341006	L
15:48	341293	L
15:48	341577	L
15:49	341879	L
15:50	342182	L
15:51	342485	L
15:52	342793	L
15:53	343094	L
15:53	343385	L
15:54	343657	L
15:55	343933	L
15:55	344118	V
15:57	344560	L
15:57	344865	L
15:58	345163	L
15:59	345433	L
16:00	345698	L
16:01	345968	L
16:01	346241	L
16:02	346523	L
16:03	346837	L
16:04	347139	L
16:05	347422	L
16:05	347693	L
16:06	347953	L
16:06	348101	V
16:08	348538	L
16:08	348832	L
16:09	349137	L
16:10	349456	L
16:11	349741	L
16:12	350006	L
16:13	350285	L
16:13	350576	L
16:14	350894	L
16:15	351049	V
16:16	351548	L
16:17	351860	L
16:18	352152	L
16:18	352429	L
16:19	352729	L
16:20	353047	L
16:21	353376	L
16:22	353704	L
16:23	354004	L
16:23	354151	V
16:25	354604	L
16:25	354887	L
16:26	355193	L
16:27	355341	V
16:27	355531	V
16:29	356057	L
16:29	356332	L
16:30	356598	L
16:31	356868	L
16:32	357140	L
16:32	357414	L
16:33	357694	L
16:34	357974	L
16:35	358259	L
16:35	358519	L
16:36	358774	L
16:37	359038	L
16:38	359328	L
16:38	359620	L
16:39	359907	L
16:40	360202	L
16:41	360484	L
16:42	360761	L
16:42	361034	L
16:43	361316	L
16:44	361617	L
16:44	361790	V
16:46	362278	L
16:47	362573	L
16:47	362858	L
16:48	363135	L
16:49	363436	L
16:50	363735	L
16:51	364037	L
16:52	364368	L
16:53	364682	L
16:53	364964	L
16:54	365248	L
16:55	365533	L
16:56	365836	L
16:56	366024	V
16:57	366474	L
16:58	366775	L
16:59	366955	V
17:00	367349	L
17:01	367614	L
17:01	367896	L
17:02	368180	L
17:03	368488	L
17:04	368650	V
17:05	369096	L
17:06	369372	L
17:06	369650	L
17:07	369929	L
17:08	370205	L
17:08	370387	V
17:10	370800	L
17:10	371095	L
17:11	371367	L
17:12	371620	L
17:13	371888	L
17:13	372168	L
17:14	372449	L
17:15	372734	L
17:16	373031	L
17:17	373321	L
17:17	373600	L
17:18	373868	L
17:19	374147	L
17:19	374291	V
17:21	374778	L
17:21	375088	L
17:22	375405	L
17:23	375699	L
17:24	375998	L
17:24	376185	V
17:26	376627	L
17:27	376955	L
17:28	377301	L
17:28	377623	L
17:29	377923	L
17:30	378217	L
17:31	378538	L
17:32	378860	L
17:33	379186	L
17:34	379541	L
17:34	379793	V
17:36	380184	L
17:36	380485	L
17:37	380784	L
17:38	381098	L
17:39	381416	L
17:39	381566	V
17:41	382054	L
17:42	382335	L
17:42	382599	L
17:43	382878	L
17:44	383166	L
17:45	383473	L
17:46	383785	L
17:46	384086	L
17:47	384367	L
17:48	384642	L
17:49	384905	L
17:49	385176	L
17:50	385461	L
17:51	385748	L
17:52	386045	L
17:53	386323	L
17:53	386569	L
17:54	386817	L
17:55	387082	L
17:55	387346	L
17:56	387600	L
17:57	387866	L
17:58	388130	L
17:58	388394	L
17:59	388646	L
18:00	388884	L
18:00	389115	L
18:01	389373	L
18:02	389644	L
18:03	389927	L
18:03	390202	L
18:04	390487	L
18:05	390755	L
18:06	391018	L
18:06	391265	L
18:07	391520	L
18:08	391789	L
18:09	392081	L
18:09	392372	L
18:10	392653	L
18:11	392926	L
18:12	393189	L
18:12	393392	V
18:13	393743	L
18:14	394021	L
18:15	394319	L
18:16	394629	L
18:17	394929	L
18:17	395204	L
18:18	395343	V
18:19	395778	L
18:20	396080	L
18:21	396384	L
18:21	396686	L
18:22	397009	L
18:23	397163	V
18:24	397588	L
18:25	397859	L
18:25	398150	L
18:26	398468	L
18:27	398778	L
18:27	398868	+
18:28	398958	V
18:29	399400	L
18:30	399683	L
18:30	399850	V
18:31	400253	L
18:32	400542	L
18:33	400741	V
18:33	400950	+
18:34	401159	L
18:35	401442	L
18:35	401704	L
18:36	401972	L
18:37	402247	L
18:37	402397	V
18:38	402820	L
18:39	403108	L
18:40	403407	L
18:41	403697	L
18:42	403960	L
18:42	404216	L
18:43	404501	L
18:44	404802	L
18:44	404990	V
18:46	405412	L
18:46	405711	L
18:47	405999	L
18:48	406276	L
18:49	406566	L
18:50	406855	L
18:50	407045	V
18:51	407517	L
18:52	407819	L
18:53	408120	L
18:54	408405	L
18:55	408704	L
18:56	409011	L
18:57	409322	L
18:57	409659	L
18:58	409992	L
18:59	410297	L
19:00	410599	L
19:01	410911	L
19:02	411240	L
19:03	411575	L
19:04	411905	L
19:05	412247	L
19:05	412456	V
19:06	412605	V
19:07	413090	L
19:08	413396	L
19:09	413717	L
19:10	414015	L
19:10	414309	L
19:11	414597	L
19:12	414869	L
19:13	415135	L
19:13	415402	L
19:14	415682	L
19:15	415973	L
19:16	416265	L
19:17	416536	L
19:17	416787	L
19:18	417050	L
19:18	417219	V
19:19	417587	L
19:20	417869	L
19:21	418159	L
19:22	418452	L
19:23	418746	L
19:23	418912	V
19:24	419268	L
19:25	419554	L
19:26	419843	L
19:27	420137	L
19:27	420432	L
19:28	420716	L
19:29	420988	L
19:30	421249	L
19:30	421502	L
19:31	421757	L
19:32	422036	L
19:33	422318	L
19:33	422590	L
19:34	422856	L
19:35	423116	L
19:36	423360	L
19:36	423601	L
19:37	423845	L
19:37	424058	V
19:38	424336	L
19:39	424613	L
19:40	424877	L
19:40	425124	L
19:41	425363	L
19:42	425596	L
19:42	425829	L
19:43	426007	V
19:44	426326	L
19:44	426581	L
19:45	426847	L
19:46	427130	L
19:47	427395	L
19:47	427642	L
19:48	427815	V
19:49	428147	L
19:50	428416	L
19:50	428698	L
19:51	428977	L
19:52	429257	L
19:53	429545	L
19:53	429716	V
19:54	430110	L
19:55	430382	L
19:56	430676	L
19:56	430838	V
19:58	431320	L
19:58	431631	L
19:59	431925	L
20:00	432215	L
20:01	432515	L
20:01	432711	V
20:03	433134	L
20:04	433460	L
20:04	433779	L
20:05	434073	L
20:06	434351	L
20:07	434657	L
20:07	434823	V
20:09	435279	L
20:09	435597	L
20:10	435906	L
20:11	436211	L
20:12	436491	L
20:13	436776	L
20:14	437095	L
20:15	437421	L
20:15	437749	L
20:16	437930	V
20:17	438401	L
20:18	438707	L
20:19	439013	L
20:20	439318	L
20:21	439658	L
20:22	440001	L
20:22	440176	V
20:23	440635	L
20:24	440925	L
20:25	441239	L
20:26	441554	L
20:27	441863	L
20:28	442209	L
20:29	442524	L
20:30	442815	L
20:30	443112	L
20:31	443408	L
20:32	443732	L
20:33	443937	V
20:34	444377	L
20:34	444562	V
20:36	444982	L
20:36	445251	L
20:37	445529	L
20:38	445809	L
20:39	446110	L
20:39	446277	V
20:40	446714	L
20:41	446981	L
20:42	447246	L
20:43	447510	L
20:43	447774	L
20:44	448049	L
20:45	448334	L
20:46	448631	L
20:47	448922	L
20:47	449180	L
20:48	449428	L
20:49	449695	L
20:49	449876	V
20:50	450257	L
20:51	450545	L
20:52	450844	L
20:53	451142	L
20:53	451231	+
20:53	451321	V
20:54	451688	L
20:55	451965	L
20:55	452144	V
20:57	452574	L
20:57	452867	L
20:58	453045	V
20:58	453238	+
20:59	453431	L
21:00	453695	L
21:00	453947	L
21:01	454209	L
21:02	454475	L
21:02	454665	V
21:04	455056	L
21:04	455327	L
21:05	455586	L
21:06	455829	L
21:06	456079	L
21:07	456255	V
21:07	456404	V
21:09	456855	L
21:09	457149	L
21:10	457230	+
21:10	457312	V
21:11	457719	L
21:12	457967	L
21:12	458108	V
21:13	458487	L
21:14	458760	L
21:14	458908	V
21:15	459108	+
21:15	459309	L
21:16	459596	L
21:17	459864	L
21:18	460111	L
21:18	460355	L
21:19	460615	L
21:20	460886	L
21:21	461180	L
21:21	461476	L
21:22	461773	L
21:23	462071	L
21:24	462352	L
21:25	462635	L
21:25	462922	L
21:26	463221	L
21:27	463550	L
21:28	463876	L
21:29	464182	L
21:30	464476	L
21:31	464777	L
21:31	465087	L
21:32	465397	L
21:33	465721	L
21:34	466056	L
21:35	466379	L
21:36	466669	L
21:37	466959	L
21:37	467272	L
21:38	467422	V
21:39	467898	L
21:40	468198	L
21:41	468485	L
21:42	468760	L
21:42	469022	L
21:43	469165	V
21:44	469580	L
21:45	469877	L
21:46	470169	L
21:46	470452	L
21:47	470730	L
21:48	470993	L
21:49	471266	L
21:49	471541	L
21:50	471820	L
21:51	472114	L
21:51	472314	V
21:53	472711	L
21:53	472968	L
21:54	473109	V
21:55	473466	L
21:55	473722	L
21:56	473995	L
21:57	474263	L
21:58	474528	L
21:58	474816	L
21:59	475079	L
22:00	475329	L
22:01	475590	L
22:01	475867	L
22:02	476168	L
22:03	476493	L
22:04	476813	L
22:05	477120	L
22:06	477429	L
22:07	477720	L
22:07	478027	L
22:08	478353	L
22:09	478570	V
22:10	479050	L
22:11	479361	L
22:12	479671	L
22:13	479989	L
22:14	480308	L
22:15	480632	L
22:16	480974	L
22:17	481326	L
22:17	481639	L
22:18	481942	L
22:19	482267	L
22:20	482609	L
22:21	482945	L
22:22	483296	L
22:23	483628	L
22:24	483948	L
22:25	484254	L
22:26	484571	L
22:27	484936	L
22:28	485298	L
22:28	485629	L
22:29	485946	L
22:30	486251	L
22:31	486560	L
22:32	486876	L
22:33	487208	L
22:34	487547	L
22:35	487870	L
22:35	488154	L
22:36	488423	L
22:37	488710	L
22:38	489006	L
22:38	489162	V
22:40	489600	L
22:40	489912	L
22:41	490190	L
22:42	490451	L
22:43	490723	L
22:43	491002	L
22:44	491312	L
22:45	491629	L
22:46	491941	L
22:47	492265	L
22:48	492569	L
22:49	492857	L
22:49	493175	L
22:50	493510	L
22:51	493861	L
22:52	494197	L
22:53	494514	L
22:54	494836	L
22:55	495146	L
22:56	495463	L
22:57	495801	L
22:58	496138	L
22:59	496478	L
22:59	496784	L
23:00	497073	L
23:01	497221	V
23:02	497674	L
23:03	497964	L
23:04	498256	L
23:04	498547	L
23:05	498826	L
23:06	499082	L
23:07	499341	L
23:07	499612	L
23:08	499900	L
23:09	500197	L
23:10	500477	L
23:11	500762	L
23:11	500926	V
23:12	501288	L
23:13	501544	L
23:13	501689	V
23:14	502074	L
23:15	502370	L
23:16	502649	L
23:16	502909	L
23:17	503160	L
23:18	503401	L
23:19	503646	L
23:19	503912	L
23:20	504178	L
23:21	504462	L
23:22	504775	L
23:22	504973	V
23:23	505193	V
23:24	505633	L
23:25	505900	L
23:26	506180	L
23:26	506482	L
23:27	506777	L
23:28	507073	L
23:29	507384	L
23:30	507668	L
23:30	507953	L
23:31	508258	L
23:32	508570	L
23:33	508900	L
23:34	509235	L
23:35	509546	L
23:36	509848	L
23:37	510150	L
23:37	510438	L
23:38	510733	L
23:39	511033	L
23:40	511347	L
23:41	511657	L
23:42	511934	L
23:42	512204	L
23:43	512497	L
23:44	512641	V
23:45	513068	L
23:45	513356	L
23:46	513535	V
23:47	513896	L
23:48	514142	L
23:48	514383	L
23:49	514621	L
23:50	514877	L
23:50	515147	L
23:51	515428	L
23:52	515706	L
23:53	515990	L
23:54	516256	L
23:54	516522	L
23:55	516685	V
23:56	517062	L
23:57	517348	L
23:57	517640	L
23:58	517929	L
23:59	518192	L
23:59	518356	V
24:00	518738	L
24:01	519022	L
24:02	519300	L
24:03	519574	L
24:04	519876	L
24:04	520071	V
24:05	520469	L
24:06	520727	L
24:06	520910	V
24:08	521333	L
24:09	521652	L
24:09	521964	L
24:10	522288	L
24:11	522603	L
24:12	522792	V
24:13	523185	L
24:14	523477	L
24:14	523797	L
24:15	524120	L
24:16	524290	V
24:17	524724	L
24:18	524998	L
24:19	525273	L
24:19	525545	L
24:20	525837	L
24:21	526136	L
24:22	526449	L
24:23	526737	L
24:23	527006	L
24:24	527279	L
24:25	527578	L
24:26	527865	L
24:27	528163	L
24:27	528475	L
24:28	528786	L
24:29	529096	L
24:30	529373	L
24:31	529663	L
24:32	529986	L
24:33	530307	L
24:33	530609	L
24:34	530766	V
24:35	531226	L
24:36	531504	L
24:37	531781	L
24:37	532058	L
24:38	532362	L
24:39	532522	V
24:40	532982	L
24:41	533269	L
24:42	533549	L
24:42	533823	L
24:43	534100	L
24:44	534247	V
24:45	534675	L
24:46	534981	L
24:46	535282	L
24:47	535555	L
24:48	535820	L
24:49	536086	L
24:49	536376	L
24:50	536665	L
24:51	536954	L
24:52	537252	L
24:53	537552	L
24:53	537817	L
24:54	538073	L
24:55	538341	L
24:56	538621	L
24:57	538924	L
24:57	539229	L
24:58	539528	L
24:59	539833	L
25:00	540120	L
25:00	540261	V
25:01	540697	L
25:02	541003	L
25:03	541309	L
25:04	541626	L
25:05	541917	L
25:05	542055	V
25:06	542452	L
25:07	542715	L
25:08	542976	L
25:09	543245	L
25:09	543521	L
25:10	543797	L
25:11	544079	L
25:12	544331	L
25:12	544573	L
25:13	544826	L
25:14	545105	L
25:14	545393	L
25:15	545685	L
25:16	545997	L
25:17	546301	L
25:18	546587	L
25:18	546730	V
25:19	547172	L
25:20	547485	L
25:21	547809	L
25:22	547968	V
25:23	548440	L
25:24	548720	L
25:25	549001	L
25:25	549155	V
25:26	549591	L
25:27	549887	L
25:28	550097	V
25:29	550514	L
25:29	550780	L
25:30	551052	L
25:31	551336	L
25:32	551642	L
25:33	551956	L
25:33	552108	V
25:35	552610	L
25:35	552903	L
25:36	553184	L
25:37	553477	L
25:38	553780	L
25:39	554116	L
25:40	554449	L
25:41	554766	L
25:41	555086	L
25:42	555389	L
25:43	555694	L
25:44	556020	L
25:45	556358	L
25:46	556706	L
25:47	557005	L
25:48	557281	L
25:48	557561	L
25:49	557838	L
25:50	558113	L
25:51	558412	L
25:51	558565	V
25:52	559012	L
25:53	559292	L
25:54	559546	L
25:54	559790	L
25:55	560076	L
25:56	560357	L
25:57	560636	L
25:58	560932	L
25:58	561220	L
25:59	561494	L
26:00	561753	L
26:01	562008	L
26:01	562272	L
26:02	562556	L
26:03	562735	V
26:04	563108	L
26:04	563376	L
26:05	563633	L
26:06	563879	L
26:06	564117	L
26:07	564290	V
26:08	564606	L
26:09	564871	L
26:09	565148	L
26:10	565413	L
26:11	565659	L
26:11	565821	V
26:12	566135	L
26:13	566379	L
26:14	566641	L
26:14	566909	L
26:15	567188	L
26:15	567282	+
26:16	567377	V
26:17	567786	L
26:17	568049	L
26:18	568219	V
26:19	568571	L
26:20	568848	L
26:20	569031	V
26:21	569233	+
26:21	569435	L
26:22	569707	L
26:23	569997	L
26:24	570255	L
26:24	570497	L
26:25	570743	L
26:26	570998	L
26:26	571264	L
26:27	571451	V
26:28	571816	L
26:29	572076	L
26:29	572219	V
26:30	572614	L
26:31	572876	L
26:32	573145	L
26:32	573428	L
26:33	573715	L
26:34	573927	V
26:35	574324	L
26:36	574588	L
26:36	574869	L
26:37	575160	L
26:38	575462	L
26:39	575771	L
26:40	576094	L
26:41	576417	L
26:42	576728	L
26:42	577023	L
26:43	577331	L
26:44	577672	L
26:45	578010	L
26:46	578341	L
26:47	578570	V
26:48	579001	L
26:49	579310	L
26:49	579507	V
26:51	579968	L
26:51	580309	L
26:52	580637	L
26:53	580942	L
26:54	581222	L
26:55	581503	L
26:56	581797	L
26:56	581988	V
26:57	582413	L
26:58	582730	L
26:59	583030	L
26:59	583166	V
27:01	583584	L
27:01	583869	L
27:02	584172	L
27:03	584472	L
27:04	584774	L
27:05	585093	L
27:06	585390	L
27:06	585674	L
27:07	585873	V
27:08	586291	L
27:09	586612	L
27:10	586940	L
27:11	587249	L
27:12	587547	L
27:12	587832	L
27:13	588126	L
27:14	588274	V
27:15	588748	L
27:16	589072	L
27:17	589387	L
27:17	589668	L
27:18	589951	L
27:19	590245	L
27:20	590552	L
27:21	590863	L
27:22	591177	L
27:22	591344	V
27:23	591811	L
27:24	592081	L
27:25	592377	L
27:26	592687	L
27:27	592992	L
27:28	593292	L
27:28	593599	L
27:29	593886	L
27:30	594172	L
27:31	594451	L
27:32	594730	L
27:32	595058	L
27:33	595384	L
27:34	595697	L
27:35	596000	L
27:36	596286	L
27:37	596578	L
27:37	596867	L
27:38	597168	L
27:39	597485	L
27:40	597801	L
27:41	598096	L
27:42	598369	L
27:42	598643	L
27:43	598934	L
27:44	599231	L
27:45	599532	L
27:46	599851	L
27:47	600173	L
27:47	600457	L
27:48	600726	L
27:49	601006	L
27:50	601302	L
27:51	601614	L
27:51	601912	L
27:52	602203	L
27:53	602494	L
27:54	602761	L
27:55	603027	L
27:55	603318	L
27:56	603490	V
27:56	603670	F
27:58	604179	L
27:59	604477	L
27:59	604748	L
28:00	605019	L
28:01	605281	L
28:02	605541	L
28:02	605812	L
28:03	606089	L
28:04	606376	L
28:05	606659	L
28:05	606914	L
28:06	607155	L
28:07	607415	L
28:07	607675	L
28:08	607938	L
28:09	608199	L
28:10	608460	L
28:10	608719	L
28:11	608975	L
28:12	609217	L
28:12	609384	V
28:13	609701	L
28:14	609974	L
28:15	610255	L
28:15	610524	L
28:16	610798	L
28:17	611073	L
28:18	611326	L
28:18	611585	L
28:19	611842	L
28:20	612105	L
28:21	612387	L
28:21	612681	L
28:22	612964	L
28:23	613220	L
28:24	613470	L
28:24	613712	L
28:25	613962	L
28:26	614221	L
28:26	614401	V
28:27	614739	L
28:28	615009	L
28:29	615272	L
28:29	615515	L
28:30	615743	L
28:31	615983	L
28:31	616144	V
28:32	616499	L
28:33	616774	L
28:34	617052	L
28:34	617323	L
28:35	617472	V
28:36	617849	L
28:36	618089	L
28:37	618335	L
28:38	618597	L
28:39	618872	L
28:39	619053	V
28:40	619472	L
28:41	619747	L
28:42	620030	L
28:43	620309	L
28:43	620597	L
28:44	620769	V
28:45	621211	L
28:46	621525	L
28:47	621821	L
28:48	622094	L
28:48	622352	L
28:49	622523	V
28:50	622924	L
28:51	623213	L
28:52	623521	L
28:52	623819	L
28:53	624102	L
28:54	624369	L
28:54	624528	V
28:55	624922	L
28:56	625218	L
28:57	625527	L
28:58	625811	L
28:58	625999	V
28:59	626382	L
29:00	626653	L
29:01	626933	L
29:01	627071	V
29:03	627518	L
29:03	627812	L
29:04	628106	L
29:05	628381	L
29:06	628642	L
29:06	628904	L
29:07	629181	L
29:08	629454	L
29:09	629733	L
29:10	630031	L
29:10	630326	L
29:11	630592	L
29:12	630857	L
29:13	631119	L
29:13	631401	L
29:14	631702	L
29:15	632002	L
29:16	632303	L
29:17	632616	L
29:18	632891	L
29:18	633153	L
29:19	633421	L
29:20	633701	L
29:21	633998	L
29:21	634279	L
29:22	634560	L
29:23	634842	L
29:24	635109	L
29:24	635374	L
29:25	635644	L
29:26	635927	L
29:27	636221	L
29:28	636528	L
29:28	636816	L
29:29	637086	L
29:30	637353	L
29:31	637607	L
29:31	637872	L
29:32	638047	V
29:33	638421	L
29:34	638703	L
29:35	639001	L
29:35	639265	L
29:36	639508	L
29:36	639669	V
29:37	640042	L
29:38	640317	L
29:39	640588	L
29:40	640869	L
29:40	641149	L
29:41	641426	L
29:42	641565	V
29:43	641950	L
29:43	642214	L
29:44	642517	L
29:45	642813	L
29:46	643104	L
29:46	643279	V
29:47	643673	L
29:48	643943	L
29:49	644215	L
29:50	644485	L
29:51	644775	L
29:51	645079	L
29:52	645259	V
29:53	645640	L
29:54	645898	L
29:54	646153	L
29:55	646420	L
29:56	646698	L
29:56	646789	+
29:56	646880	V
29:57	647259	L
29:58	647557	L
29:59	647736	V
30:00	648077	L
30:00	648322	L
30:01	648493	V
30:01	648663	+
30:02	648834	L
30:03	649112	L
30:03	649379	L
30:04	649627	L
30:05	649891	L
