0:00	124	N
0:00	313	N
0:01	503	N
0:01	704	N
0:02	901	N
0:03	1098	N
0:03	1294	N
0:04	1481	N
0:04	1669	N
0:05	1854	N
0:05	2042	N
0:06	2221	N
0:06	2407	N
0:07	2594	N
0:07	2786	N
0:08	2990	N
0:08	3199	N
0:09	3399	N
0:10	3605	N
0:10	3789	N
0:11	3971	N
0:11	4153	N
0:12	4339	N
0:12	4520	N
0:13	4711	N
0:13	4910	N
0:14	5111	N
0:14	5309	N
0:15	5503	N
0:15	5690	N
0:16	5876	N
0:16	6069	N
0:17	6258	N
0:17	6428	V
0:18	6631	N
0:18	6817	N
0:19	7012	N
0:20	7216	N
0:20	7412	N
0:21	7616	N
0:21	7816	N
0:22	8018	N
0:22	8205	N
0:23	8390	N
0:23	8570	N
0:24	8753	N
0:24	8946	N
0:25	9103	V
0:25	9214	V
0:26	9549	N
0:27	9745	N
0:27	9943	N
0:28	10135	N
0:28	10322	N
0:29	10490	V
0:29	10619	V
0:30	10875	N
0:30	11062	N
0:31	11254	N
0:31	11448	N
0:32	11643	N
0:32	11842	N
0:33	12050	N
0:34	12248	N
0:34	12436	N
0:35	12618	N
0:35	12797	N
0:36	12976	N
0:36	13160	N
0:37	13340	N
0:37	13533	N
0:38	13732	N
0:38	13937	N
0:39	14138	N
0:39	14332	N
0:40	14517	N
0:40	14700	N
0:41	14885	N
0:41	15018	V
0:42	15262	N
0:42	15456	N
0:43	15649	N
0:44	15847	N
0:44	16043	N
0:45	16244	N
0:45	16437	N
0:46	16635	N
0:46	16809	V
0:47	17005	N
0:47	17181	N
0:48	17361	N
0:48	17542	N
0:49	17730	N
0:49	17927	N
0:50	18130	N
0:50	18327	N
0:51	18467	V
0:51	18716	N
0:52	18900	N
0:53	19084	N
0:53	19263	N
0:54	19442	N
0:54	19554	V
0:55	19816	N
0:55	20010	N
0:56	20210	N
0:56	20402	N
0:57	20595	N
0:57	20795	N
0:58	20996	N
0:58	21180	N
0:59	21360	N
0:59	21537	N
1:00	21718	N
1:00	21902	N
1:01	22098	N
1:01	22282	N
1:02	22486	N
1:03	22687	N
1:03	22894	N
1:04	23087	N
1:04	23278	N
1:05	23458	N
1:05	23638	N
1:06	23822	N
1:06	24014	N
1:07	24204	N
1:07	24406	N
1:08	24601	N
1:08	24800	N
1:09	25007	N
1:10	25202	N
1:10	25393	N
1:11	25575	N
1:11	25759	N
1:12	25938	N
1:12	26075	V
1:13	26308	N
1:13	26500	N
1:14	26705	N
1:14	26921	N
1:15	27125	N
1:15	27328	N
1:16	27511	N
1:16	27653	V
1:17	27766	V
1:17	28056	N
1:18	28243	N
1:18	28429	N
1:19	28628	N
1:20	28823	N
1:20	29021	N
1:21	29212	N
1:21	29400	N
1:22	29590	N
1:22	29778	N
1:23	29957	N
1:23	30138	N
1:24	30314	N
1:24	30491	N
1:25	30675	N
1:25	30825	V
1:26	31065	N
1:26	31267	N
1:27	31469	N
1:27	31670	N
1:28	31857	N
1:29	32040	N
1:29	32216	N
1:29	32396	N
1:30	32585	N
1:31	32783	N
1:31	32978	N
1:32	33180	N
1:32	33375	N
1:33	33573	N
1:33	33772	N
1:34	33960	N
1:34	34146	N
1:35	34329	N
1:35	34516	N
1:36	34703	N
1:36	34846	V
1:37	35083	N
1:37	35279	N
1:38	35485	N
1:39	35703	N
1:39	35905	N
1:40	36057	V
1:40	36282	N
1:41	36463	N
1:41	36646	N
1:42	36828	N
1:42	37017	N
1:43	37209	N
1:43	37413	N
1:44	37610	N
1:45	37811	N
1:45	38006	N
1:46	38196	N
1:46	38357	V
1:47	38569	N
1:47	38745	N
1:48	38930	N
1:48	39109	N
1:49	39296	N
1:49	39478	N
1:50	39677	N
1:50	39870	N
1:51	40075	N
1:51	40275	N
1:52	40466	N
1:52	40646	N
1:53	40827	N
1:53	41007	N
1:54	41192	N
1:54	41383	N
1:55	41579	N
1:56	41777	N
1:56	41978	N
1:57	42174	N
1:57	42369	N
1:58	42561	N
1:58	42743	N
1:59	42930	N
1:59	43115	N
2:00	43307	N
2:00	43492	N
2:01	43686	N
2:01	43878	N
2:02	44076	N
2:03	44281	N
2:03	44492	N
2:04	44685	N
2:04	44875	N
2:05	45054	N
2:05	45234	N
2:06	45419	N
2:06	45601	N
2:07	45791	N
2:07	45985	N
2:08	46161	V
2:08	46392	N
2:09	46592	N
2:09	46785	N
2:10	46968	N
2:10	47151	N
2:11	47335	N
2:11	47518	N
2:12	47706	N
2:13	47892	N
2:13	48081	N
2:14	48269	N
2:14	48472	N
2:15	48665	N
2:15	48862	N
2:16	49050	N
2:16	49237	N
2:17	49417	N
2:17	49597	N
2:18	49773	N
2:18	49952	N
2:19	50144	N
2:19	50348	N
2:20	50549	N
2:20	50753	N
2:21	50948	N
2:22	51138	V
2:22	51330	N
2:23	51512	N
2:23	51690	N
2:24	51875	N
2:24	52066	N
2:25	52262	N
2:25	52456	N
2:26	52658	N
2:26	52855	N
2:27	53057	N
2:27	53259	N
2:28	53453	N
2:28	53638	N
2:29	53820	N
2:29	53994	N
2:30	54176	N
2:31	54365	N
2:31	54559	N
2:32	54756	N
2:32	54952	N
2:33	55160	N
2:33	55360	N
2:34	55553	N
2:34	55732	N
2:35	55907	N
2:35	56088	N
2:36	56279	N
2:36	56467	N
2:37	56658	N
2:37	56850	N
2:38	57047	N
2:38	57238	N
2:39	57394	V
2:40	57623	N
2:40	57812	N
2:41	57991	N
2:41	58169	N
2:42	58343	N
2:42	58503	V
2:43	58710	N
2:43	58900	N
2:43	59038	V
2:44	59303	N
2:45	59499	N
2:45	59699	N
2:46	59877	N
2:46	60058	N
2:47	60197	V
2:47	60420	N
2:48	60595	N
2:48	60779	N
2:49	60969	N
2:49	61168	N
2:50	61366	N
2:51	61565	N
2:51	61754	N
2:52	61945	N
2:52	62134	N
2:53	62314	V
2:53	62503	N
2:54	62684	N
2:54	62865	N
2:55	63057	N
2:55	63257	N
2:56	63448	N
2:56	63647	N
2:57	63850	N
2:57	64059	N
2:58	64240	N
2:58	64421	N
2:59	64513	+
2:59	64556	V
2:59	64672	V
2:59	64787	V
3:00	64914	+
3:00	64973	N
3:01	65165	N
3:01	65290	V
3:02	65567	N
3:02	65762	N
3:03	65961	N
3:03	66154	N
3:04	66347	N
3:04	66524	N
3:05	66702	N
3:05	66879	N
3:06	67062	N
3:06	67242	N
3:07	67388	~
3:07	67437	N
3:07	67557	~
3:07	67625	N
3:08	67820	N
3:08	68030	N
3:09	68243	N
3:10	68437	N
3:10	68621	N
3:11	68799	N
3:11	68969	N
3:12	69148	N
3:12	69330	N
3:13	69521	N
3:13	69622	~
3:13	69713	N
3:14	69915	N
3:14	70112	N
3:15	70271	~
3:15	70315	N
3:15	70505	N
3:16	70687	N
3:16	70869	N
3:17	71052	N
3:17	71231	N
3:18	71421	N
3:18	71470	~
3:18	71545	V
3:19	71681	V
3:19	71990	N
3:20	72197	N
3:21	72390	N
3:21	72588	N
3:22	72784	N
3:22	72931	V
3:23	73143	N
3:23	73319	N
3:24	73495	N
3:24	73679	N
3:24	73761	~
3:25	73871	N
3:25	74067	N
3:26	74260	N
3:26	74461	N
3:27	74650	N
3:27	74842	N
3:28	75029	N
3:28	75209	N
3:29	75393	N
3:29	75570	N
3:30	75762	N
3:30	75943	N
3:31	76138	N
3:32	76327	N
3:32	76521	N
3:33	76721	N
3:33	76922	N
3:34	77108	N
3:34	77296	N
3:35	77472	N
3:35	77650	N
3:36	77824	N
3:36	78009	N
3:37	78193	N
3:37	78391	N
3:38	78589	N
3:38	78790	N
3:39	78989	N
3:39	79183	N
3:40	79362	N
3:40	79544	N
3:41	79729	N
3:41	79914	N
3:42	80105	N
3:43	80296	N
3:43	80483	N
3:44	80675	N
3:44	80873	N
3:45	81062	N
3:45	81263	N
3:46	81452	N
3:46	81639	N
3:47	81817	N
3:47	81999	N
3:48	82180	N
3:48	82349	V
3:49	82555	N
3:49	82760	N
3:50	82962	N
3:51	83167	N
3:51	83360	N
3:52	83551	N
3:52	83731	N
3:53	83910	N
3:53	84086	N
3:54	84253	V
3:54	84458	N
3:55	84650	N
3:55	84846	N
3:56	85046	N
3:56	85245	N
3:57	85438	N
3:57	85637	N
3:58	85826	N
3:58	86005	N
3:59	86184	N
3:59	86360	N
4:00	86541	N
4:00	86721	N
4:01	86902	N
4:01	87093	N
4:02	87289	N
4:03	87491	N
4:03	87689	N
4:04	87882	N
4:04	88064	N
4:05	88240	N
4:05	88415	N
4:06	88597	N
4:06	88786	N
4:07	88976	N
4:07	89172	N
4:08	89363	N
4:08	89562	N
4:09	89762	N
4:09	89950	N
4:10	90132	N
4:10	90310	N
4:11	90493	N
4:11	90669	N
4:12	90852	N
4:12	91035	N
4:13	91225	N
4:13	91427	N
4:14	91640	N
4:15	91842	N
4:15	92036	N
4:16	92223	N
4:16	92405	N
4:17	92587	N
4:17	92771	N
4:18	92945	N
4:18	93130	N
4:19	93321	N
4:19	93526	N
4:20	93706	V
4:20	93925	N
4:21	94119	N
4:21	94310	N
4:22	94501	N
4:23	94693	N
4:23	94873	N
4:24	95061	N
4:24	95239	N
4:25	95430	N
4:25	95619	N
4:26	95823	N
4:26	96022	N
4:27	96229	N
4:27	96431	N
4:28	96626	N
4:28	96810	N
4:29	96995	N
4:29	97177	N
4:30	97363	N
4:30	97558	N
4:31	97759	N
4:32	97959	N
4:32	98163	N
4:33	98362	N
4:33	98551	N
4:34	98742	N
4:34	98925	N
4:35	99113	N
4:35	99300	N
4:36	99498	N
4:36	99679	N
4:37	99880	N
4:37	100071	N
4:38	100272	N
4:39	100476	N
4:39	100686	N
4:40	100878	N
4:40	101068	N
4:41	101262	N
4:41	101432	N
4:42	101620	N
4:42	101807	N
4:43	102001	N
4:43	102201	N
4:44	102408	N
4:45	102605	N
4:45	102746	A
4:46	102984	N
4:46	103177	N
4:47	103365	N
4:47	103560	N
4:48	103747	N
4:48	103940	N
4:49	104131	N
4:49	104328	N
4:50	104527	N
4:50	104733	N
4:51	104927	N
4:52	105127	N
4:52	105317	N
4:53	105502	N
4:53	105676	N
4:54	105850	N
4:54	106026	N
4:55	106212	N
4:55	106413	N
4:56	106625	N
4:56	106835	N
4:57	107049	N
4:57	107239	N
4:58	107427	N
4:58	107612	N
4:59	107790	N
4:59	107973	N
5:00	108162	N
5:01	108365	N
5:01	108562	N
5:02	108766	N
5:02	108961	N
5:03	109161	N
5:03	109365	N
5:04	109564	N
5:04	109743	N
5:05	109925	N
5:05	110062	V
5:06	110192	V
5:06	110463	N
5:07	110662	N
5:07	110852	N
5:08	111052	N
5:09	111253	N
5:09	111454	N
5:10	111642	N
5:10	111824	N
5:11	112001	N
5:11	112181	N
5:12	112359	N
5:12	112552	N
5:13	112741	N
5:13	112941	N
5:14	113138	N
5:14	113338	N
5:15	113543	N
5:15	113733	N
5:16	113920	N
5:16	114098	N
5:17	114282	N
5:17	114460	N
5:18	114654	N
5:18	114837	N
5:19	115029	N
5:20	115231	N
5:20	115441	N
5:21	115643	N
5:21	115850	N
5:22	116035	N
5:22	116219	N
5:23	116396	N
5:23	116574	N
5:24	116755	N
5:24	116943	N
5:25	117144	N
5:25	117343	N
5:26	117502	V
5:27	117743	N
5:27	117930	N
5:28	118119	N
5:28	118306	N
5:29	118486	N
5:29	118667	N
5:30	118849	N
5:30	119026	N
5:31	119176	V
5:31	119401	N
5:32	119588	N
5:32	119792	N
5:33	119990	N
5:33	120192	N
5:34	120377	N
5:34	120558	N
5:35	120733	N
5:35	120912	N
5:36	121102	N
5:36	121296	N
5:37	121485	N
5:38	121689	N
5:38	121879	N
5:39	122082	N
5:39	122280	N
5:40	122469	N
5:40	122652	N
5:41	122835	N
5:41	123022	N
5:42	123208	N
5:42	123400	N
5:43	123590	N
5:43	123781	N
5:44	123985	N
5:45	124202	N
5:45	124409	N
5:46	124608	N
5:46	124789	N
5:47	124971	N
5:47	125149	N
5:48	125336	N
5:48	125518	N
5:49	125712	N
5:49	125911	N
5:50	126114	N
5:50	126315	N
5:51	126519	N
5:51	126708	N
5:52	126892	N
5:53	127080	N
5:53	127264	N
5:54	127442	N
5:54	127635	N
5:55	127817	N
5:55	128015	N
5:56	128220	N
5:56	128416	N
5:57	128617	N
5:57	128815	N
5:58	129011	N
5:58	129194	N
5:59	129379	N
5:59	129561	N
6:00	129746	N
6:00	129937	N
6:01	130145	N
6:02	130351	N
6:02	130561	N
6:03	130763	N
6:03	130967	N
6:04	131156	N
6:04	131339	N
6:05	131474	V
6:05	131705	N
6:06	131897	N
6:06	132091	N
6:07	132286	N
6:08	132484	N
6:08	132676	N
6:09	132879	N
6:09	133082	N
6:10	133277	N
6:10	133460	N
6:11	133641	N
6:11	133815	N
6:12	133992	N
6:12	134182	N
6:13	134371	N
6:13	134563	N
6:14	134758	N
6:14	134966	N
6:15	135169	N
6:16	135372	N
6:16	135558	N
6:17	135738	N
6:17	135920	N
6:18	136112	N
6:18	136304	N
6:19	136499	N
6:19	136692	N
6:20	136890	N
6:20	137083	N
6:21	137243	A
6:21	137475	N
6:22	137668	N
6:22	137843	V
6:23	138037	N
6:23	138213	N
6:24	138400	N
6:24	138580	N
6:25	138773	N
6:26	138979	N
6:26	139191	N
6:27	139390	N
6:27	139593	N
6:28	139776	N
6:28	139960	N
6:29	140145	N
6:29	140329	N
6:30	140515	N
6:30	140702	N
6:31	140902	N
6:31	141100	N
6:32	141304	N
6:33	141507	N
6:33	141704	N
6:34	141898	N
6:34	142090	N
6:35	142271	N
6:35	142456	N
6:36	142638	N
6:36	142826	N
6:37	143016	N
6:37	143221	N
6:38	143416	N
6:38	143628	N
6:39	143836	N
6:40	144037	N
6:40	144220	N
6:41	144402	N
6:41	144581	N
6:42	144767	N
6:42	144963	N
6:43	145164	N
6:43	145363	N
6:44	145571	N
6:44	145770	N
6:45	145925	V
6:46	146173	N
6:46	146356	N
6:47	146542	N
6:47	146722	N
6:48	146913	N
6:48	147053	V
6:49	147296	N
6:49	147488	N
6:50	147685	N
6:50	147889	N
6:51	148111	N
6:51	148309	N
6:52	148501	N
6:52	148672	N
6:53	148848	N
6:53	149028	N
6:54	149216	N
6:55	149408	N
6:55	149617	N
6:56	149831	N
6:56	150049	N
6:57	150254	N
6:57	150453	N
6:58	150634	N
6:58	150819	N
6:59	151009	N
7:00	151201	N
7:00	151399	N
7:01	151589	N
7:01	151785	N
7:02	151984	N
7:02	152191	N
7:03	152394	N
7:03	152601	N
7:04	152795	N
7:04	152977	N
7:05	153156	N
7:05	153336	N
7:06	153523	N
7:07	153720	N
7:07	153858	V
7:07	153990	V
7:08	154182	N
7:08	154349	N
7:09	154552	N
7:09	154753	N
7:10	154938	N
7:10	155122	N
7:11	155285	V
7:11	155487	N
7:12	155682	N
7:12	155844	V
7:13	156076	N
7:14	156276	N
7:14	156475	N
7:15	156683	N
7:15	156891	N
7:16	157084	N
7:16	157268	N
7:17	157449	N
7:17	157632	N
7:18	157815	N
7:18	158007	N
7:19	158194	N
7:19	158399	N
7:20	158554	V
7:21	158822	N
7:21	159017	N
7:22	159207	N
7:22	159389	N
7:23	159575	N
7:23	159761	N
7:24	159953	N
7:24	160141	N
7:25	160338	N
7:25	160533	N
7:26	160733	N
7:27	160939	N
7:27	161131	N
7:28	161325	N
7:28	161509	N
7:29	161696	N
7:29	161875	N
7:30	162061	N
7:30	162226	V
7:31	162432	N
7:31	162632	N
7:32	162848	N
7:32	163051	N
7:33	163259	N
7:34	163443	N
7:34	163625	N
7:35	163806	N
7:35	163988	N
7:36	164174	N
7:36	164363	N
7:37	164562	N
7:37	164758	N
7:38	164962	N
7:38	165163	N
7:39	165361	N
7:39	165560	N
7:40	165753	N
7:40	165934	N
7:41	166117	N
7:41	166297	N
7:42	166485	N
7:42	166667	N
7:43	166865	N
7:44	167055	N
7:44	167263	N
7:45	167472	N
7:45	167677	N
7:46	167859	N
7:46	168042	N
7:47	168221	N
7:47	168405	N
7:48	168598	N
7:48	168793	N
7:49	168990	N
7:49	169198	N
7:50	169397	N
7:51	169598	N
7:51	169797	N
7:52	169982	N
7:52	170168	N
7:53	170351	N
7:53	170535	N
7:54	170722	N
7:54	170916	N
7:55	171106	N
7:55	171297	N
7:56	171498	N
7:56	171710	N
7:57	171915	N
7:58	172116	N
7:58	172296	N
7:59	172474	N
7:59	172651	N
8:00	172836	N
8:00	173019	N
8:01	173217	N
8:01	173352	V
8:02	173617	N
8:02	173812	N
8:03	174014	N
8:03	174202	N
8:04	174388	N
8:04	174571	N
8:05	174753	N
8:05	174927	N
8:06	175117	N
8:06	175296	N
8:07	175487	N
8:07	175675	N
8:08	175870	N
8:09	176061	N
8:09	176260	N
8:10	176453	N
8:10	176637	N
8:11	176816	N
8:11	176997	N
8:12	177174	N
8:12	177357	N
8:13	177552	N
8:13	177758	N
8:14	177960	N
8:14	178107	V
8:15	178354	N
8:15	178546	N
8:16	178718	V
8:16	178912	N
8:17	179094	N
8:17	179275	N
8:18	179466	N
8:18	179612	V
8:19	179715	V
8:20	180051	N
8:20	180215	V
8:21	180458	N
8:21	180663	N
8:22	180854	N
8:22	181038	N
8:23	181218	N
8:23	181398	N
8:24	181578	N
8:24	181768	N
8:25	181955	N
8:25	182159	N
8:26	182362	N
8:27	182572	N
8:27	182768	N
8:28	182945	V
8:28	183138	N
8:29	183318	N
8:29	183502	N
8:30	183695	N
8:30	183882	N
8:31	184077	N
8:31	184266	N
8:32	184465	N
8:32	184666	N
8:33	184866	N
8:34	185058	N
8:34	185242	N
8:35	185426	N
8:35	185605	N
8:36	185791	N
8:36	185979	N
8:37	186167	N
8:37	186363	N
8:38	186575	N
8:38	186787	N
8:39	186996	N
8:39	187193	N
8:40	187379	N
8:40	187557	N
8:41	187740	N
8:41	187918	N
8:42	188115	N
8:43	188314	N
8:43	188527	N
8:44	188727	N
8:44	188933	N
8:45	189129	N
8:45	189328	N
8:46	189526	N
8:46	189652	V
8:47	189895	N
8:48	190082	N
8:48	190267	N
8:49	190456	N
8:49	190661	N
8:50	190859	N
8:50	191066	N
8:51	191268	N
8:51	191475	N
8:52	191661	N
8:52	191846	N
8:53	192000	V
8:53	192126	V
8:54	192399	N
8:55	192602	N
8:55	192802	N
8:56	193012	N
8:56	193210	N
8:57	193414	N
8:57	193614	N
8:58	193798	N
8:58	193980	N
8:59	194159	N
8:59	194344	N
9:00	194527	N
9:00	194715	N
9:01	194898	N
9:01	195086	N
9:02	195288	N
9:03	195501	N
9:03	195700	N
9:04	195893	N
9:04	196069	N
9:05	196247	N
9:05	196423	N
9:06	196609	N
9:06	196788	N
9:07	196982	N
9:07	197180	N
9:08	197388	N
9:08	197591	N
9:09	197795	N
9:09	197988	N
9:10	198175	N
9:11	198362	N
9:11	198545	N
9:12	198730	N
9:12	198920	N
9:13	199110	N
9:13	199302	N
9:14	199505	N
9:14	199699	N
9:15	199892	V
9:15	200110	N
9:16	200303	N
9:16	200481	N
9:17	200660	N
9:17	200836	N
9:18	201022	N
9:18	201214	N
9:19	201417	N
9:20	201616	N
9:20	201831	N
9:21	202022	N
9:21	202217	N
9:22	202402	N
9:22	202545	V
9:23	202767	N
9:23	202947	N
9:24	203138	N
9:24	203318	N
9:25	203510	N
9:25	203702	N
9:26	203896	N
9:26	204100	N
9:27	204308	N
9:27	204471	V
9:28	204680	N
9:29	204856	N
9:29	205038	N
9:30	205216	N
9:30	205404	N
9:31	205588	N
9:31	205791	N
9:32	205997	N
9:32	206159	V
9:32	206275	V
9:33	206594	N
9:34	206782	N
9:34	206963	N
9:35	207146	N
9:35	207332	N
9:36	207524	N
9:37	207720	N
9:37	207909	N
9:38	208104	N
9:38	208306	N
9:39	208503	N
9:39	208706	N
9:40	208894	N
9:40	209081	N
9:41	209262	N
9:41	209444	N
9:42	209631	N
9:42	209816	N
9:43	210015	N
9:43	210224	N
9:44	210427	N
9:45	210637	N
9:45	210834	N
9:46	211026	N
9:46	211205	N
9:47	211387	N
9:47	211562	N
9:48	211750	N
9:48	211940	N
9:49	212140	N
9:49	212328	N
9:50	212485	V
9:50	212716	N
9:51	212913	N
9:51	213069	A
9:52	213304	N
9:53	213482	N
9:53	213663	N
9:53	213838	N
9:54	214025	N
9:55	214215	N
9:55	214407	N
9:56	214604	N
9:56	214802	N
9:57	215009	N
9:57	215207	N
9:58	215394	N
9:58	215573	N
9:59	215748	N
9:59	215930	N
10:00	216120	N
10:00	216310	N
10:01	216506	N
10:01	216702	N
10:02	216897	N
10:03	217092	N
10:03	217297	N
10:04	217484	N
10:04	217672	N
10:05	217853	N
10:05	218040	N
10:06	218223	N
10:06	218411	N
10:07	218598	N
10:07	218794	N
10:08	218976	V
10:08	219219	N
10:09	219416	N
10:10	219615	N
10:10	219797	N
10:11	219981	N
10:11	220163	N
10:12	220346	N
10:12	220533	N
10:13	220726	N
10:13	220930	N
10:14	221137	N
10:14	221343	N
10:15	221547	N
10:15	221741	N
10:16	221888	V
10:17	222121	N
10:17	222304	N
10:18	222493	N
10:18	222680	N
10:19	222874	N
10:19	223036	V
10:20	223276	N
10:20	223467	N
10:21	223675	N
10:21	223872	N
10:22	224064	N
10:22	224247	N
10:23	224429	N
10:23	224605	N
10:24	224786	N
10:24	224979	N
10:25	225183	N
10:26	225382	N
10:26	225590	N
10:27	225784	N
10:27	225976	N
10:28	226165	N
10:28	226347	N
10:29	226531	N
10:29	226715	N
10:30	226910	N
10:30	227099	N
10:31	227296	N
10:31	227495	N
10:32	227696	N
10:33	227903	N
10:33	228114	N
10:34	228306	N
10:34	228495	N
10:35	228676	N
10:35	228861	N
10:36	229051	N
10:36	229247	N
10:37	229441	N
10:37	229648	N
10:38	229861	N
10:39	230072	N
10:39	230281	N
10:40	230475	N
10:40	230660	N
10:41	230845	N
10:41	231034	N
10:42	231230	N
10:42	231428	N
10:43	231625	N
10:43	231827	N
10:44	232027	N
10:45	232231	N
10:45	232424	N
10:46	232576	V
10:46	232809	N
10:47	232991	N
10:47	233167	N
10:48	233346	N
10:48	233529	N
10:49	233726	N
10:49	233940	N
10:50	234151	N
10:50	234291	V
10:51	234563	N
10:52	234755	N
10:52	234942	N
10:53	235130	N
10:53	235310	N
10:54	235456	V
10:54	235691	N
10:55	235891	N
10:55	236090	N
10:56	236293	N
10:56	236446	V
10:57	236692	N
10:58	236894	N
10:58	237085	N
10:59	237271	N
10:59	237452	N
11:00	237637	N
11:00	237822	N
11:01	238018	N
11:01	238211	N
11:02	238418	N
11:02	238626	N
11:03	238839	N
11:03	239037	N
11:04	239224	N
11:05	239402	N
11:05	239585	N
11:06	239777	N
11:06	239974	N
11:07	240172	N
11:07	240374	N
11:08	240574	N
11:08	240770	N
11:09	240976	N
11:09	241168	N
11:10	241364	N
11:10	241553	N
11:11	241742	N
11:12	241926	N
11:12	242114	N
11:13	242296	V
11:13	242509	N
11:14	242723	N
11:14	242948	N
11:15	243158	N
11:15	243355	N
11:16	243538	N
11:16	243718	N
11:17	243904	N
11:18	244086	N
11:18	244279	N
11:19	244473	N
11:19	244677	N
11:20	244880	N
11:20	244952	~
11:20	245084	N
11:21	245281	N
11:21	245477	N
11:22	245624	V
11:22	245852	N
11:23	246027	N
11:23	246167	~
11:23	246210	N
11:24	246390	N
11:24	246576	N
11:25	246772	N
11:26	246961	N
11:26	247164	N
11:27	247368	N
11:27	247575	N
11:28	247761	N
11:28	247943	N
11:29	248120	N
11:29	248300	N
11:30	248490	N
11:30	248690	N
11:31	248885	N
11:31	249093	N
11:32	249291	N
11:33	249495	N
11:33	249696	N
11:34	249892	N
11:34	250079	N
11:35	250264	N
11:35	250450	N
11:36	250640	N
11:36	250831	N
11:37	251026	N
11:37	251221	N
11:38	251423	N
11:38	251632	N
11:39	251836	N
11:40	252035	N
11:40	252220	N
11:41	252404	N
11:41	252582	N
11:42	252767	N
11:42	252945	N
11:43	253141	N
11:43	253341	N
11:44	253553	N
11:44	253752	N
11:45	253953	N
11:45	254139	N
11:46	254327	N
11:46	254517	N
11:47	254706	N
11:48	254893	N
11:48	255083	N
11:49	255266	N
11:49	255459	N
11:50	255661	N
11:50	255858	N
11:51	256065	N
11:51	256262	N
11:52	256452	N
11:52	256631	N
11:53	256814	N
11:53	256994	N
11:54	257179	N
11:54	257375	N
11:55	257579	N
11:56	257777	N
11:56	257984	N
11:57	258181	N
11:57	258380	N
11:58	258566	N
11:58	258750	N
11:59	258927	N
11:59	259107	N
12:00	259291	N
12:00	259481	N
12:01	259670	N
12:01	259870	N
12:02	260059	N
12:02	260255	N
12:03	260446	V
12:03	260575	V
12:04	260841	N
12:05	261027	N
12:05	261203	N
12:06	261384	N
12:06	261573	N
12:07	261766	N
12:07	261967	N
12:08	262173	N
12:08	262385	N
12:09	262587	N
12:09	262786	N
12:10	262973	N
12:10	263159	N
12:11	263345	N
12:12	263538	N
12:12	263727	N
12:13	263928	N
12:13	264076	V
12:14	264329	N
12:14	264528	N
12:15	264730	N
12:15	264920	N
12:16	265112	N
12:16	265299	N
12:17	265483	N
12:17	265669	N
12:18	265855	N
12:18	266039	N
12:19	266231	N
12:20	266439	N
12:20	266648	N
12:21	266851	N
12:21	267045	N
12:22	267225	N
12:22	267403	N
12:23	267585	N
12:23	267725	V
12:24	267952	N
12:24	268139	N
12:25	268342	N
12:25	268538	N
12:26	268744	N
12:27	268942	N
12:27	269140	N
12:28	269335	N
12:28	269525	N
12:29	269705	N
12:29	269891	N
12:30	270077	N
12:30	270267	N
12:31	270461	N
12:31	270662	N
12:32	270864	N
12:32	271074	N
12:33	271286	N
12:34	271483	N
12:34	271669	N
12:35	271850	N
12:35	272031	N
12:36	272223	N
12:36	272424	N
12:37	272627	N
12:37	272836	N
12:38	273036	N
12:38	273238	N
12:39	273439	N
12:40	273640	N
12:40	273830	N
12:41	274015	N
12:41	274203	N
12:42	274394	N
12:42	274589	N
12:43	274785	N
12:43	274984	N
12:44	275190	N
12:45	275410	N
12:45	275618	N
12:46	275820	N
12:46	276003	N
12:47	276188	N
12:47	276369	N
12:48	276556	N
12:48	276746	N
12:49	276948	N
12:49	277162	N
12:50	277367	N
12:51	277571	N
12:51	277765	N
12:52	277957	N
12:52	278151	N
12:53	278343	N
12:53	278525	N
12:54	278716	N
12:54	278898	N
12:55	279097	N
12:55	279250	~
12:55	279299	N
12:56	279504	N
12:56	279666	V
12:57	279908	N
12:57	280077	~
12:58	280104	N
12:58	280286	N
12:59	280467	N
12:59	280642	N
13:00	280814	N
13:00	281000	N
13:01	281198	N
13:01	281401	N
13:02	281610	N
13:02	281810	N
13:03	282006	N
13:03	282193	N
13:04	282382	N
13:04	282562	N
13:05	282749	N
13:05	282937	N
13:06	283130	N
13:07	283321	N
13:07	283521	N
13:08	283722	N
13:08	283932	N
13:09	284147	N
13:09	284352	N
13:10	284543	N
13:10	284728	N
13:11	284910	N
13:11	285093	N
13:12	285289	N
13:12	285474	N
13:13	285679	N
13:14	285890	N
13:14	286103	N
13:15	286308	N
13:15	286507	N
13:16	286693	N
13:16	286880	N
13:17	287070	N
13:17	287261	N
13:18	287455	N
13:19	287649	N
13:19	287844	N
13:20	288042	N
13:20	288251	N
13:21	288451	N
13:21	288656	N
13:22	288850	N
13:22	289035	N
13:23	289213	N
13:23	289395	N
13:24	289580	N
13:24	289773	N
13:25	289979	N
13:26	290189	N
13:26	290311	~
13:26	290389	N
13:27	290593	N
13:27	290789	N
13:28	290978	N
13:28	291164	N
13:29	291259	~
13:29	291338	N
13:29	291519	N
13:30	291702	N
13:30	291899	N
13:31	292091	N
13:31	292291	N
13:32	292482	N
13:32	292675	N
13:33	292854	V
13:34	293079	N
13:34	293263	N
13:35	293448	N
13:35	293621	N
13:36	293806	N
13:36	293991	N
13:37	294187	N
13:37	294386	N
13:38	294588	N
13:38	294795	N
13:39	294997	N
13:39	295193	N
13:40	295381	N
13:41	295565	N
13:41	295750	N
13:42	295941	N
13:42	296133	N
13:43	296335	N
13:43	296535	N
13:44	296738	N
13:44	296932	N
13:45	297134	N
13:45	297323	N
13:46	297514	N
13:46	297700	N
13:47	297888	N
13:47	298070	N
13:48	298256	N
13:48	298439	N
13:49	298636	N
13:50	298845	N
13:50	299060	N
13:51	299264	N
13:51	299462	N
13:52	299644	N
13:52	299827	N
13:53	300012	N
13:53	300192	N
13:54	300378	N
13:54	300564	N
13:55	300764	N
13:55	300927	V
13:56	301163	N
13:57	301359	N
13:57	301550	N
13:58	301735	N
13:58	301922	N
13:59	302102	N
13:59	302287	N
14:00	302472	N
14:00	302658	N
14:01	302843	N
14:01	303043	N
14:02	303237	N
14:02	303444	N
14:03	303647	N
14:04	303850	N
14:04	304032	N
14:05	304217	N
14:05	304396	N
14:06	304582	N
14:06	304779	N
14:07	304987	N
14:07	305188	N
14:08	305400	N
14:08	305597	N
14:09	305800	N
14:09	305997	N
14:10	306183	N
14:11	306370	N
14:11	306555	N
14:12	306750	N
14:12	306940	N
14:13	307141	N
14:13	307334	N
14:14	307534	N
14:14	307744	N
14:15	307960	N
14:15	308159	N
14:16	308353	N
14:17	308535	N
14:17	308716	N
14:18	308899	N
14:18	309089	N
14:19	309286	N
14:19	309490	N
14:20	309703	N
14:20	309906	N
14:21	310108	N
14:21	310301	N
14:22	310489	N
14:22	310677	N
14:23	310867	N
14:23	311010	V
14:24	311247	N
14:25	311433	N
14:25	311632	N
14:26	311832	N
14:26	311979	~
14:26	312038	N
14:27	312233	N
14:27	312430	N
14:28	312503	~
14:28	312617	N
14:28	312797	N
14:29	312973	N
14:29	313149	N
14:30	313327	N
14:30	313509	N
14:31	313706	N
14:31	313911	N
14:32	314112	N
14:33	314321	N
14:33	314512	N
14:34	314698	N
14:34	314880	N
14:35	315058	N
14:35	315243	N
14:36	315431	N
14:36	315631	N
14:37	315798	V
14:37	316028	N
14:38	316224	N
14:38	316426	N
14:39	316635	N
14:40	316839	N
14:40	317024	N
14:41	317207	N
14:41	317383	N
14:42	317569	N
14:42	317759	N
14:43	317954	N
14:43	318161	N
14:44	318364	N
14:44	318577	N
14:45	318776	N
14:46	318976	N
14:46	319162	N
14:46	319309	V
14:47	319536	N
14:48	319729	N
14:48	319919	N
14:49	320126	N
14:49	320324	N
14:50	320530	N
14:50	320738	N
14:51	320933	N
14:52	321130	N
14:52	321318	N
14:53	321510	N
14:53	321691	N
14:54	321884	N
14:54	322069	N
14:55	322261	N
14:55	322467	N
14:56	322691	N
14:56	322903	N
14:57	323111	N
14:58	323297	N
14:58	323480	N
14:59	323659	N
14:59	323835	N
15:00	324023	N
15:00	324145	V
15:01	324419	N
15:01	324615	N
15:02	324820	N
15:02	325019	N
15:03	325218	N
15:03	325419	N
15:04	325614	N
15:04	325796	N
15:05	325979	N
15:05	326158	N
15:06	326349	N
15:07	326544	N
15:07	326746	N
15:08	326952	N
15:08	327156	N
15:09	327372	N
15:09	327572	N
15:10	327765	N
15:10	327949	N
15:11	328131	N
15:11	328319	N
15:12	328520	N
15:12	328676	V
15:13	328930	N
15:14	329130	N
15:14	329333	N
15:15	329534	N
15:15	329730	N
15:16	329923	N
15:16	330112	N
15:17	330303	N
15:18	330488	N
15:18	330676	N
15:19	330867	N
15:19	331066	N
15:20	331276	N
15:20	331493	N
15:21	331695	N
15:21	331896	N
15:22	332079	N
15:22	332157	~
15:22	332265	N
15:23	332448	N
15:23	332629	N
15:24	332815	N
15:25	333004	N
15:25	333162	~
15:25	333205	N
15:26	333402	N
15:26	333603	N
15:27	333799	N
15:27	333985	N
15:28	334170	N
15:28	334351	N
15:29	334531	N
15:29	334713	N
15:30	334901	N
15:30	335087	N
15:31	335277	N
15:31	335480	N
15:32	335673	N
15:33	335883	N
15:33	336088	N
15:34	336288	N
15:34	336474	N
15:35	336656	N
15:35	336836	N
15:36	337023	N
15:36	337223	N
15:37	337434	N
15:37	337639	N
15:38	337846	N
15:39	338047	N
15:39	338248	N
15:40	338446	N
15:40	338632	N
15:41	338821	N
15:41	339004	N
15:42	339199	N
15:42	339386	N
15:43	339588	N
15:43	339785	N
15:44	339988	N
15:44	340193	N
15:45	340403	N
15:46	340596	N
15:46	340788	N
15:47	340970	N
15:47	341154	N
15:48	341339	N
15:48	341521	N
15:49	341716	N
15:49	341918	N
15:50	342129	N
15:50	342330	N
15:51	342527	N
15:51	342713	N
15:52	342893	N
15:52	343077	N
15:53	343264	N
15:54	343451	N
15:54	343641	N
15:55	343830	N
15:55	344022	N
15:56	344218	N
15:56	344421	N
15:57	344612	N
15:57	344808	N
15:58	344992	N
15:58	345178	N
15:59	345354	N
15:59	345536	N
16:00	345713	N
16:00	345897	N
16:01	346093	N
16:01	346306	N
16:02	346514	N
16:02	346652	V
16:03	346911	N
16:04	347097	N
16:04	347279	N
16:05	347463	N
16:05	347639	N
16:06	347821	N
16:06	348004	N
16:07	348201	N
16:07	348390	N
16:08	348591	N
16:08	348782	N
16:09	348981	N
16:09	349178	N
16:10	349363	N
16:10	349537	N
16:11	349686	V
16:11	349887	N
16:12	350069	N
16:12	350252	N
16:13	350437	N
16:13	350628	N
16:14	350827	N
16:15	351036	N
16:15	351235	N
16:16	351419	N
16:16	351597	N
16:17	351772	N
16:17	351954	N
16:18	352143	N
16:18	352290	V
16:19	352526	N
16:19	352725	N
16:20	352922	N
16:20	353116	N
16:21	353316	N
16:21	353503	N
16:22	353692	N
16:22	353873	N
16:23	354055	N
16:23	354231	N
16:24	354419	N
16:25	354605	N
16:25	354797	N
16:26	354995	V
16:26	355148	V
16:27	355422	N
16:27	355624	N
16:28	355807	N
16:28	355988	N
16:29	356169	N
16:29	356350	N
16:30	356538	N
16:30	356731	N
16:31	356937	N
16:32	357143	N
16:32	357349	N
16:33	357547	N
16:33	357739	N
16:34	357877	V
16:34	358120	N
16:35	358302	N
16:35	358489	N
16:36	358670	N
16:36	358858	N
16:37	359050	N
16:37	359256	N
16:38	359454	N
16:39	359664	N
16:39	359871	N
16:40	360062	N
16:40	360242	N
16:41	360420	N
16:41	360599	N
16:42	360788	N
16:42	360991	N
16:43	361195	N
16:43	361406	N
16:44	361615	N
16:45	361815	N
16:45	362009	N
16:46	362203	N
16:46	362386	N
16:47	362574	N
16:47	362756	N
16:48	362942	N
16:48	363127	N
16:49	363322	N
16:49	363518	N
16:50	363721	N
16:50	363930	N
16:51	364134	N
16:51	364285	V
16:52	364442	V
16:53	364684	N
16:53	364863	N
16:53	365038	V
16:54	365231	N
16:55	365425	N
16:55	365622	N
16:56	365843	N
16:56	366048	N
16:57	366252	N
16:57	366437	N
16:58	366622	N
16:58	366767	V
16:59	366996	N
16:59	367177	N
17:00	367371	N
17:00	367556	N
17:01	367752	N
17:02	367951	N
17:02	368152	N
17:03	368359	N
17:03	368557	N
17:04	368751	N
17:04	368931	N
17:05	369115	N
17:05	369296	N
17:06	369483	N
17:06	369678	N
17:07	369885	N
17:08	370086	N
17:08	370297	N
17:09	370497	N
17:09	370694	N
17:10	370882	N
17:10	371067	N
17:11	371252	N
17:11	371440	N
17:12	371636	N
17:12	371820	N
17:13	372019	N
17:13	372216	N
17:14	372404	V
17:15	372622	N
17:15	372771	V
17:16	373020	N
17:16	373208	N
17:17	373387	N
17:17	373564	N
17:18	373741	N
17:18	373929	N
17:19	374118	N
17:19	374321	N
17:20	374529	N
17:20	374730	N
17:21	374927	N
17:21	375119	N
17:22	375303	N
17:23	375489	N
17:23	375680	N
17:24	375870	N
17:24	376064	N
17:25	376259	N
17:25	376454	N
17:26	376654	N
17:26	376859	N
17:27	377048	N
17:27	377247	N
17:28	377438	N
17:28	377627	N
17:29	377808	N
17:29	377991	N
17:30	378171	N
17:31	378366	N
17:31	378570	N
17:32	378780	N
17:32	378982	N
17:33	379193	N
17:33	379345	V
17:34	379576	N
17:34	379767	N
17:35	379950	N
17:35	380134	N
17:36	380323	N
17:37	380527	N
17:37	380729	N
17:38	380938	N
17:38	381140	N
17:39	381339	N
17:39	381541	N
17:40	381739	N
17:40	381925	N
17:41	382113	N
17:41	382292	N
17:42	382481	N
17:42	382674	N
17:43	382875	N
17:44	383077	N
17:44	383282	N
17:45	383496	N
17:45	383698	N
17:46	383893	N
17:46	384040	V
17:47	384264	N
17:47	384450	N
17:48	384651	N
17:49	384851	N
17:49	385064	N
17:50	385273	N
17:50	385477	N
17:51	385676	N
17:51	385876	N
17:52	386066	N
17:52	386256	N
17:53	386445	N
17:53	386635	N
17:54	386825	N
17:55	387022	N
17:55	387220	N
17:56	387375	V
17:56	387648	N
17:57	387862	N
17:57	388061	N
17:58	388246	N
17:58	388428	N
17:59	388609	N
18:00	388801	N
18:00	388986	N
18:01	389186	N
18:01	389382	N
18:02	389589	N
18:02	389785	N
18:03	389989	N
18:03	390178	N
18:04	390366	N
18:04	390552	N
18:05	390735	N
18:05	390923	N
18:06	391118	N
18:06	391305	N
18:07	391499	N
18:08	391706	N
18:08	391906	N
18:09	392120	N
18:09	392323	N
18:10	392521	N
18:10	392703	N
18:11	392889	N
18:11	393074	N
18:12	393265	N
18:12	393466	N
18:13	393679	N
18:14	393891	N
18:14	394106	N
18:15	394307	N
18:15	394505	N
18:16	394698	N
18:16	394881	N
18:17	395071	N
18:17	395259	N
18:18	395456	N
18:19	395647	N
18:19	395850	N
18:20	396048	N
18:20	396256	N
18:21	396469	N
18:21	396675	N
18:22	396863	N
18:22	397047	N
18:23	397225	N
18:23	397409	N
18:24	397603	N
18:24	397796	N
18:25	398004	N
18:26	398209	N
18:26	398424	N
18:27	398625	N
18:27	398828	N
18:28	399017	N
18:28	399205	N
18:29	399393	N
18:29	399587	N
18:30	399758	V
18:31	399985	N
18:31	400186	N
18:32	400393	N
18:32	400604	N
18:33	400803	N
18:33	401008	N
18:34	401199	N
18:34	401389	N
18:35	401573	N
18:36	401760	N
18:36	401943	N
18:37	402138	N
18:37	402349	N
18:38	402572	N
18:38	402789	N
18:39	403000	N
18:39	403123	V
18:40	403377	N
18:41	403564	N
18:41	403743	N
18:42	403936	N
18:42	404131	N
18:43	404333	N
18:43	404532	N
18:44	404742	N
18:44	404941	N
18:45	405145	N
18:45	405306	V
18:46	405536	N
18:46	405711	N
18:47	405891	N
18:47	406074	N
18:48	406265	N
18:49	406463	N
18:49	406655	N
18:50	406863	N
18:50	407069	N
18:51	407284	N
18:51	407480	N
18:52	407669	N
18:52	407847	N
18:53	408028	N
18:53	408220	N
18:54	408422	N
18:55	408616	N
18:55	408823	N
18:56	409017	N
18:56	409220	N
18:57	409430	N
18:57	409625	N
18:58	409817	N
18:58	410002	N
18:59	410191	N
18:59	410376	N
19:00	410571	N
19:00	410757	N
19:01	410929	V
19:02	411167	N
19:02	411383	N
19:03	411587	N
19:03	411787	N
19:04	411973	N
19:04	412157	N
19:05	412345	N
19:05	412525	N
19:06	412717	N
19:06	412910	N
19:07	413118	N
19:08	413316	N
19:08	413521	N
19:09	413720	N
19:09	413913	N
19:10	414103	N
19:10	414291	N
19:11	414471	N
19:11	414658	N
19:12	414844	N
19:12	415034	N
19:13	415228	N
19:13	415420	N
19:14	415622	N
19:15	415829	N
19:15	416035	N
19:16	416221	N
19:16	416402	N
19:17	416582	N
19:17	416762	N
19:18	416951	N
19:18	417153	N
19:19	417351	N
19:19	417557	N
19:20	417754	N
19:20	417955	N
19:21	418152	N
19:22	418346	N
19:22	418529	N
19:23	418713	N
19:23	418899	N
19:24	419089	N
19:24	419279	N
19:25	419470	N
19:25	419661	N
19:26	419868	N
19:26	420085	N
19:27	420298	N
19:28	420493	N
19:28	420676	N
19:29	420858	N
19:29	421038	N
19:30	421226	N
19:30	421408	N
19:31	421604	N
19:31	421801	N
19:32	422013	N
19:32	422211	N
19:33	422416	N
19:33	422603	N
19:34	422786	N
19:34	422970	N
19:35	423156	N
19:35	423340	N
19:36	423534	N
19:37	423721	N
19:37	423918	N
19:38	424116	N
19:38	424319	N
19:39	424520	N
19:39	424722	N
19:40	424914	N
19:40	425098	N
19:41	425282	N
19:41	425467	N
19:42	425653	N
19:42	425852	N
19:43	426061	N
19:44	426274	N
19:44	426488	N
19:45	426694	N
19:45	426893	N
19:46	427081	N
19:46	427267	N
19:47	427445	N
19:47	427634	N
19:48	427828	N
19:48	428031	N
19:49	428230	N
19:50	428436	N
19:50	428631	N
19:51	428835	N
19:51	428984	V
19:52	429238	N
19:52	429425	N
19:53	429608	N
19:53	429786	N
19:54	429971	N
19:54	430167	N
19:55	430359	N
19:55	430514	V
19:56	430765	N
19:57	430967	N
19:57	431157	N
19:58	431349	N
19:58	431529	N
19:59	431711	N
19:59	431893	N
20:00	432087	N
20:00	432275	N
20:01	432476	N
20:01	432670	N
20:02	432873	N
20:02	433070	N
20:03	433269	N
20:04	433459	N
20:04	433649	N
20:05	433838	N
20:05	434023	N
20:06	434208	N
20:06	434394	N
20:07	434585	N
20:07	434789	N
20:08	435005	N
20:08	435214	N
20:09	435371	V
20:10	435615	N
20:10	435801	N
20:11	435985	N
20:11	436172	N
20:12	436357	N
20:12	436553	N
20:13	436756	N
20:13	436963	N
20:14	437172	N
20:14	437380	N
20:15	437582	N
20:16	437781	N
20:16	437975	N
20:17	438162	N
20:17	438350	N
20:18	438541	N
20:18	438735	N
20:19	438936	N
20:19	439144	N
20:20	439294	V
20:21	439560	N
20:21	439772	N
20:22	439971	N
20:22	440158	N
20:23	440340	N
20:23	440520	N
20:24	440709	N
20:24	440909	N
20:25	441109	N
20:25	441325	N
20:26	441535	N
20:27	441738	N
20:27	441931	N
20:28	442122	N
20:28	442305	N
20:29	442492	N
20:29	442679	N
20:30	442869	N
20:30	443058	N
20:30	443157	+
20:31	443184	V
20:31	443304	V
20:31	443430	V
20:32	443573	+
20:32	443673	N
20:33	443896	N
20:33	444105	N
20:34	444302	N
20:34	444485	N
20:35	444672	N
20:35	444856	N
20:36	445049	N
20:36	445238	N
20:37	445442	N
20:37	445656	N
20:38	445873	N
20:39	446088	N
20:39	446288	N
20:40	446478	N
20:40	446668	N
20:41	446861	N
20:41	447051	N
20:42	447250	N
20:42	447437	N
20:43	447640	N
20:44	447842	N
20:44	448049	N
20:45	448257	N
20:45	448460	N
20:46	448659	N
20:46	448844	N
20:47	449033	N
20:47	449217	N
20:48	449412	N
20:48	449561	V
20:49	449827	N
20:50	450033	N
20:50	450252	N
20:51	450452	N
20:51	450620	~
20:51	450651	N
20:52	450842	N
20:52	451020	N
20:53	451204	N
20:53	451386	N
20:54	451516	~
20:54	451583	N
20:54	451770	N
20:55	451965	N
20:55	452153	N
20:56	452346	N
20:56	452482	V
20:57	452760	N
20:58	452948	N
20:58	453134	N
20:59	453307	N
20:59	453488	N
21:00	453670	N
21:00	453861	N
21:01	454058	N
21:01	454259	N
21:02	454465	N
21:02	454668	N
21:03	454871	N
21:04	455064	N
21:04	455251	N
21:05	455437	N
21:05	455626	N
21:06	455815	N
21:06	456012	N
21:07	456205	N
21:07	456409	N
21:08	456612	N
21:08	456813	N
21:09	457015	N
21:10	457215	N
21:10	457412	N
21:11	457600	N
21:11	457786	N
21:12	457939	V
21:12	458156	N
21:13	458355	N
21:13	458571	N
21:14	458781	N
21:14	458920	V
21:15	459193	N
21:16	459385	N
21:16	459570	N
21:17	459756	N
21:17	459940	N
21:18	460089	V
21:18	460322	N
21:19	460517	N
21:19	460656	~
21:19	460715	N
21:20	460917	N
21:20	461114	N
21:21	461318	N
21:21	461516	N
21:22	461624	~
21:22	461699	N
21:22	461879	N
21:23	462056	N
21:23	462236	N
21:24	462417	N
21:25	462608	N
21:25	462794	N
21:26	463000	N
21:26	463204	N
21:27	463419	N
21:27	463612	N
21:28	463802	N
21:28	463979	N
21:29	464162	N
21:29	464350	N
21:30	464554	N
21:30	464749	N
21:31	464960	N
21:32	465156	N
21:32	465362	N
21:33	465568	N
21:33	465767	N
21:34	465963	N
21:34	466153	N
21:35	466346	N
21:35	466532	N
21:36	466726	N
21:36	466918	N
21:37	467120	N
21:38	467332	N
21:38	467553	N
21:39	467760	N
21:39	467963	N
21:40	468145	N
21:40	468331	N
21:41	468514	N
21:41	468701	N
21:42	468895	N
21:43	469091	N
21:43	469305	N
21:44	469507	N
21:44	469656	V
21:44	469758	V
21:45	470106	N
21:46	470304	N
21:46	470497	N
21:47	470680	N
21:47	470868	N
21:48	471050	N
21:48	471238	N
21:49	471430	N
21:50	471633	N
21:50	471823	N
21:51	472027	N
21:51	472219	N
21:52	472407	N
21:52	472581	N
21:53	472760	N
21:53	472934	N
21:54	473119	N
21:54	473314	N
21:55	473522	N
21:55	473725	N
21:56	473933	N
21:57	474129	N
21:57	474329	N
21:58	474523	N
21:58	474708	N
21:59	474896	N
21:59	475079	N
22:00	475273	N
22:00	475460	N
22:01	475662	N
22:01	475858	N
22:02	476057	N
22:02	476266	N
22:03	476480	N
22:04	476676	N
22:04	476868	N
22:05	477050	N
22:05	477235	N
22:06	477423	N
22:06	477611	N
22:07	477811	N
22:07	478019	N
22:08	478239	N
22:09	478445	N
22:09	478653	N
22:10	478837	N
22:10	479024	N
22:11	479215	N
22:11	479408	N
22:12	479600	N
22:12	479798	N
22:13	479986	N
22:13	480024	~
22:13	480151	V
22:14	480393	N
22:14	480596	N
22:15	480731	~
22:15	480800	N
22:16	480991	N
22:16	481175	N
22:17	481351	N
22:17	481528	N
22:18	481708	N
22:18	481893	N
22:19	482046	V
22:19	482316	N
22:20	482565	"
22:20	482708	N
22:21	482923	N
22:21	483115	N
22:22	483300	N
22:23	483482	N
22:23	483662	N
22:24	483844	N
22:24	484037	N
22:25	484239	N
22:25	484451	N
22:26	484658	N
22:26	484864	N
22:27	485016	V
22:27	485264	N
22:28	485458	N
22:29	485642	N
22:29	485827	N
22:30	486013	N
22:30	486208	N
22:31	486405	N
22:31	486611	N
22:32	486813	N
22:32	487025	N
22:33	487239	N
22:34	487440	N
22:34	487629	N
22:35	487812	N
22:35	487991	N
22:36	488180	N
22:36	488382	N
22:37	488584	N
22:37	488796	N
22:38	488998	N
22:38	489204	N
22:39	489400	N
22:39	489596	N
22:40	489785	N
22:41	489972	N
22:41	490158	N
22:42	490343	N
22:42	490529	N
22:43	490722	N
22:43	490916	N
22:44	491124	N
22:44	491337	N
22:45	491543	N
22:45	491740	N
22:46	491922	N
22:46	492105	N
22:47	492284	N
22:47	492472	N
22:48	492654	N
22:49	492852	N
22:49	493059	N
22:50	493267	N
22:50	493473	N
22:51	493672	N
22:51	493863	N
22:52	494054	N
22:52	494245	N
22:53	494430	N
22:53	494619	N
22:54	494804	N
22:54	494995	N
22:55	495191	N
22:56	495400	N
22:56	495598	N
22:57	495807	N
22:57	496010	N
22:58	496201	N
22:58	496385	N
22:59	496570	N
22:59	496752	N
23:00	496945	N
23:00	497144	N
23:01	497347	N
23:02	497555	N
23:02	497762	N
23:03	497969	N
23:03	498163	N
23:04	498353	N
23:04	498533	N
23:05	498720	N
23:05	498909	N
23:06	499102	N
23:06	499289	N
23:07	499483	N
23:07	499674	N
23:08	499874	N
23:09	500084	N
23:09	500293	N
23:10	500480	N
23:10	500662	N
23:11	500836	N
23:11	501017	N
23:12	501208	N
23:12	501394	N
23:13	501591	N
23:13	501790	N
23:14	502009	N
23:14	502168	V
23:15	502424	N
23:16	502611	N
23:16	502798	N
23:17	502983	N
23:17	503172	N
23:18	503363	N
23:18	503560	N
23:19	503752	N
23:19	503953	N
23:20	504149	N
23:20	504353	N
23:21	504554	N
23:22	504752	N
23:22	504942	N
23:23	505123	N
23:23	505305	N
23:24	505493	N
23:24	505680	N
23:25	505881	N
23:25	506097	N
23:26	506309	N
23:27	506521	N
23:27	506724	N
23:28	506918	N
23:28	507105	N
23:29	507293	N
23:29	507471	N
23:30	507660	N
23:30	507855	N
23:31	508060	N
23:31	508263	N
23:32	508469	N
23:32	508662	N
23:33	508862	N
23:34	509059	N
23:34	509252	N
23:35	509437	N
23:35	509584	V
23:36	509804	N
23:36	509989	N
23:37	510189	N
23:37	510317	V
23:38	510596	N
23:38	510804	N
23:39	511016	N
23:40	511207	N
23:40	511397	N
23:41	511580	N
23:41	511763	N
23:42	511951	N
23:42	512146	N
23:43	512337	N
23:43	512540	N
23:44	512733	N
23:44	512928	N
23:45	513118	N
23:45	513307	N
23:46	513489	N
23:46	513674	N
23:47	513858	N
23:47	514042	N
23:48	514228	N
23:48	514415	N
23:49	514605	N
23:50	514806	N
23:50	515022	N
23:51	515233	N
23:51	515433	N
23:52	515620	N
23:52	515804	N
23:53	515988	N
23:53	516178	N
23:54	516362	N
23:54	516559	N
23:55	516759	N
23:55	516919	V
23:56	517173	N
23:57	517378	N
23:57	517574	N
23:58	517762	N
23:58	517952	N
23:59	518139	N
23:59	518325	N
24:00	518519	N
24:00	518702	N
24:01	518894	N
24:01	519093	N
24:02	519289	N
24:03	519497	N
24:03	519698	N
24:04	519893	N
24:04	520069	N
24:05	520249	N
24:05	520425	N
24:06	520604	V
24:06	520804	N
24:07	521010	N
24:07	521209	N
24:08	521429	N
24:08	521632	N
24:09	521836	N
24:10	522032	N
24:10	522218	N
24:11	522402	N
24:11	522584	N
24:12	522781	N
24:12	522975	N
24:13	523128	V
24:13	523374	N
24:14	523576	N
24:14	523789	N
24:15	524009	N
24:16	524206	N
24:16	524397	N
24:17	524575	N
24:17	524753	N
24:18	524939	N
24:18	525129	N
24:19	525329	N
24:19	525537	N
24:20	525766	N
24:21	525976	N
24:21	526133	V
24:21	526237	V
24:22	526544	N
24:23	526706	V
24:23	526923	N
24:24	527109	N
24:24	527300	N
24:25	527483	N
24:25	527679	N
24:26	527874	N
24:26	528075	N
24:27	528267	N
24:27	528460	N
24:28	528642	N
24:28	528821	N
24:29	528996	N
24:29	529182	N
24:30	529360	N
24:30	529549	N
24:31	529750	N
24:32	529963	N
24:32	530168	N
24:33	530378	N
24:33	530569	N
24:34	530702	V
24:34	530936	N
24:35	531112	N
24:35	531298	N
24:36	531486	N
24:36	531684	N
24:37	531836	V
24:37	532078	N
24:38	532271	N
24:39	532469	N
24:39	532672	N
24:40	532868	N
24:40	533050	N
24:41	533198	V
24:41	533403	N
24:42	533585	N
24:42	533772	N
24:43	533962	N
24:43	534164	N
24:44	534363	N
24:44	534574	N
24:45	534727	V
24:46	534967	N
24:46	535147	N
24:46	535316	V
24:47	535509	N
24:48	535701	N
24:48	535887	N
24:49	536087	N
24:49	536275	N
24:50	536470	N
24:50	536663	N
24:51	536863	N
24:51	537055	N
24:52	537244	N
24:52	537425	N
24:53	537605	N
24:53	537785	N
24:54	537973	N
24:54	538159	N
24:55	538356	N
24:56	538566	N
24:56	538777	N
24:57	538988	N
24:57	539185	N
24:58	539371	N
24:58	539518	V
24:59	539739	N
24:59	539915	N
25:00	540108	N
25:00	540303	N
25:01	540505	N
25:01	540704	N
25:02	540858	V
25:02	540994	V
25:03	541297	N
25:04	541497	N
25:04	541686	N
25:05	541866	N
25:05	542053	N
25:06	542234	N
25:06	542422	N
25:07	542622	N
25:07	542814	N
25:08	543017	N
25:08	543218	N
25:09	543431	N
25:10	543622	N
25:10	543812	N
25:11	543992	N
25:11	544175	N
25:12	544359	N
25:12	544558	N
25:13	544752	N
25:13	544962	N
25:14	545160	N
25:14	545317	V
25:15	545549	N
25:15	545740	N
25:16	545923	N
25:16	546106	N
25:17	546289	N
25:17	546471	N
25:18	546652	N
25:19	546841	N
25:19	547031	N
25:20	547232	N
25:20	547379	V
25:21	547651	N
25:21	547846	N
25:22	548038	N
25:22	548219	N
25:23	548398	N
25:23	548580	N
25:24	548761	N
25:24	548955	N
25:25	549154	N
25:26	549367	N
25:26	549565	N
25:27	549771	N
25:27	549967	N
25:28	550157	N
25:28	550347	N
25:29	550539	N
25:29	550720	N
25:30	550918	N
25:30	551105	N
25:31	551305	N
25:31	551505	N
25:32	551707	N
25:33	551906	N
25:33	552109	N
25:34	552306	N
25:34	552494	N
25:35	552679	N
25:35	552859	N
25:36	553041	N
25:36	553233	N
25:37	553443	N
25:37	553652	N
25:38	553863	N
25:39	554063	N
25:39	554253	N
25:40	554439	N
25:40	554626	N
25:41	554804	N
25:41	554989	N
25:42	555171	N
25:42	555361	N
25:43	555549	N
25:43	555752	N
25:44	555945	N
25:44	556143	N
25:45	556347	N
25:45	556546	N
25:46	556729	N
25:46	556915	N
25:47	557092	N
25:47	557273	N
25:48	557460	N
25:49	557649	N
25:49	557852	N
25:50	558057	N
25:50	558269	N
25:51	558471	N
25:51	558673	N
25:52	558860	N
25:52	559046	N
25:53	559233	N
25:53	559427	N
25:54	559618	N
25:55	559822	N
25:55	560018	N
25:56	560226	N
25:56	560433	N
25:57	560636	N
25:57	560835	N
25:58	561028	N
25:58	561221	N
25:59	561404	N
25:59	561525	V
26:00	561784	N
26:01	561976	N
26:01	562185	N
26:02	562431	N
26:02	562658	N
26:03	562875	N
26:04	563068	N
26:04	563252	N
26:05	563437	N
26:05	563616	N
26:06	563807	N
26:06	564005	N
26:07	564215	N
26:07	564412	N
26:08	564619	N
26:08	564816	N
26:09	565013	N
26:10	565211	N
26:10	565401	N
26:11	565577	N
26:11	565755	N
26:12	565935	N
26:12	566125	N
26:13	566315	N
26:13	566518	N
26:14	566712	N
26:14	566861	V
26:15	567132	N
26:15	567331	N
26:16	567522	N
26:16	567704	N
26:17	567885	N
26:17	568074	N
26:18	568278	N
26:19	568477	N
26:19	568690	N
26:20	568889	N
26:20	569096	N
26:21	569298	N
26:21	569497	N
26:22	569688	N
26:22	569874	N
26:23	570064	N
26:24	570250	N
26:24	570447	N
26:25	570642	N
26:25	570841	N
26:26	571054	N
26:26	571277	N
26:27	571483	N
26:28	571684	N
26:28	571868	N
26:29	572056	N
26:29	572243	N
26:30	572426	N
26:30	572619	N
26:31	572815	N
26:31	572972	V
26:31	573115	V
26:32	573449	N
26:33	573651	N
26:34	573844	N
26:34	574034	N
26:35	574225	N
26:35	574407	N
26:36	574600	N
26:36	574786	N
26:37	574981	N
26:37	575181	N
26:38	575379	N
26:38	575587	N
26:39	575792	N
26:39	575993	N
26:40	576175	N
26:40	576356	N
26:41	576529	N
26:41	576709	N
26:42	576901	N
26:43	577099	N
26:43	577294	N
26:44	577501	N
26:44	577693	N
26:45	577896	N
26:45	578092	N
26:46	578279	N
26:46	578463	N
26:47	578643	N
26:47	578835	N
26:48	579027	N
26:48	579227	N
26:49	579380	V
26:49	579517	V
26:50	579832	N
26:51	580052	N
26:51	580255	N
26:52	580451	N
26:52	580632	N
26:53	580814	N
26:53	581000	N
26:54	581188	N
26:54	581386	N
26:55	581591	N
26:56	581812	N
26:56	582026	N
26:57	582231	N
26:57	582426	N
26:58	582614	N
26:58	582805	N
26:59	582996	N
26:59	583188	N
27:00	583386	N
27:01	583576	N
27:01	583779	N
27:02	583985	N
27:02	584189	N
27:03	584398	N
27:03	584597	N
27:04	584791	N
27:04	584924	V
27:05	585163	N
27:05	585347	N
27:06	585534	N
27:07	585730	N
27:07	585943	N
27:08	586151	N
27:08	586364	N
27:09	586505	V
27:09	586760	N
27:10	586943	N
27:10	586981	~
27:10	587126	N
27:11	587302	N
27:11	587490	N
27:12	587681	N
27:12	587793	~
27:12	587875	N
27:13	588015	V
27:14	588260	N
27:14	588449	N
27:15	588646	N
27:15	588850	N
27:16	589044	N
27:16	589223	N
27:17	589367	V
27:17	589579	N
27:18	589760	N
27:18	589952	N
27:19	590144	N
27:19	590343	N
27:20	590544	N
27:20	590757	N
27:21	590959	N
27:22	591157	N
27:22	591345	N
27:23	591529	N
27:23	591714	N
27:24	591913	N
27:24	592106	N
27:25	592313	N
27:25	592511	N
27:26	592717	N
27:26	592915	N
27:27	593117	N
27:28	593310	N
27:28	593504	N
27:29	593697	N
27:29	593882	N
27:30	594068	N
27:30	594255	N
27:31	594449	N
27:31	594656	N
27:32	594876	N
27:32	594947	~
27:33	595088	N
27:33	595291	N
27:33	595414	V
27:34	595671	F
27:34	595790	V
27:35	595889	~
27:35	596025	N
27:36	596200	N
27:36	596388	N
27:37	596582	N
27:37	596789	N
27:38	596989	N
27:38	597195	N
27:39	597383	N
27:39	597574	N
27:40	597765	N
27:40	597954	N
27:41	598139	N
27:42	598329	N
27:42	598512	N
27:43	598702	N
27:43	598905	N
27:44	599105	N
27:44	599316	N
27:45	599524	N
27:45	599732	N
27:46	599917	N
27:46	600104	N
27:47	600286	N
27:47	600476	N
27:48	600625	V
27:49	600887	N
27:49	601095	N
27:50	601313	N
27:50	601516	N
27:51	601722	N
27:52	601925	N
27:52	602110	N
27:53	602297	N
27:53	602482	N
27:54	602681	N
27:54	602873	N
27:55	603078	N
27:55	603278	N
27:56	603438	V
27:56	603697	N
27:57	603914	N
27:58	604116	N
27:58	604307	N
27:59	604487	N
27:59	604665	N
28:00	604858	N
28:00	605012	~
28:00	605045	N
28:01	605253	N
28:01	605414	V
28:02	605670	N
28:02	605755	~
28:02	605863	N
28:03	606065	N
28:04	606250	N
28:04	606434	N
28:05	606618	N
28:05	606798	N
28:06	606983	N
28:06	607175	N
28:07	607363	N
28:07	607561	N
28:08	607766	N
28:08	607964	N
28:09	608166	N
28:09	608364	N
28:10	608558	N
28:10	608741	N
28:11	608925	N
28:11	609103	N
28:12	609291	N
28:13	609493	N
28:13	609708	N
28:14	609916	N
28:14	610130	N
28:15	610324	N
28:15	610523	N
28:16	610712	N
28:16	610895	N
28:17	611083	N
28:17	611271	N
28:18	611473	N
28:19	611663	N
28:19	611866	N
28:20	612066	N
28:20	612271	N
28:21	612487	N
28:21	612696	N
28:22	612883	N
28:22	613068	N
28:23	613248	N
28:23	613432	N
28:24	613628	N
28:25	613817	N
28:25	614023	N
28:26	614223	N
28:26	614445	N
28:27	614649	N
28:27	614851	N
28:28	615038	N
28:28	615224	N
28:29	615409	N
28:29	615568	V
28:30	615793	N
28:31	615991	N
28:31	616188	N
28:32	616389	N
28:32	616597	N
28:33	616789	N
28:33	616988	N
28:34	617175	N
28:34	617362	N
28:35	617540	N
28:35	617719	N
28:36	617861	V
28:36	618080	N
28:37	618279	N
28:38	618508	N
28:38	618751	N
28:39	618953	N
28:39	619137	N
28:40	619320	N
28:40	619503	N
28:41	619682	N
28:41	619865	N
28:42	620050	N
28:42	620246	N
28:43	620440	N
28:44	620644	N
28:44	620846	N
28:45	621046	N
28:45	621242	N
28:46	621435	N
28:46	621619	N
28:47	621807	N
28:47	621987	N
28:48	622141	V
28:48	622363	N
28:49	622561	N
28:49	622758	N
28:50	622971	N
28:51	623187	N
28:51	623396	N
28:52	623589	N
28:52	623771	N
28:53	623952	N
28:53	624137	N
28:54	624340	N
28:54	624543	N
28:55	624754	N
28:55	624959	N
28:56	625161	N
28:57	625363	N
28:57	625571	N
28:58	625761	N
28:58	625951	N
28:59	626135	N
28:59	626320	N
29:00	626506	N
29:00	626699	N
29:01	626892	N
29:01	627092	N
29:02	627299	N
29:03	627508	N
29:03	627706	N
29:04	627895	N
29:04	628074	N
29:05	628253	N
29:05	628433	N
29:06	628609	N
29:06	628796	N
29:07	628989	N
29:07	629159	V
29:08	629398	N
29:08	629599	N
29:09	629790	N
29:09	629978	N
29:10	630167	N
29:10	630359	N
29:11	630542	N
29:12	630732	N
29:12	630911	N
29:13	631102	N
29:13	631295	N
29:14	631501	N
29:14	631698	N
29:15	631905	N
29:15	632105	N
29:16	632297	N
29:16	632482	N
29:17	632669	N
29:17	632854	N
29:18	633048	N
29:19	633251	N
29:19	633458	N
29:20	633669	N
29:20	633881	N
29:21	634033	V
29:21	634284	N
29:22	634478	N
29:22	634657	N
29:23	634844	N
29:23	635034	N
29:24	635236	N
29:25	635432	N
29:25	635634	N
29:26	635829	N
29:26	635964	~
29:26	636029	N
29:27	636243	N
29:27	636453	N
29:28	636640	N
29:28	636819	N
29:29	636992	N
29:29	637168	N
29:30	637298	~
29:30	637360	N
29:30	637543	N
29:31	637691	V
29:32	637939	N
29:32	638144	N
29:33	638342	N
29:33	638543	N
29:34	638728	N
29:34	638910	N
29:35	639094	N
29:35	639279	N
29:36	639465	N
29:36	639658	N
29:37	639852	N
29:37	640056	N
29:38	640260	N
29:39	640471	N
29:39	640618	V
29:40	640864	N
29:40	641049	N
29:41	641237	N
29:41	641419	N
29:42	641610	N
29:42	641794	N
29:43	641994	N
29:43	642209	N
29:44	642290	"
29:44	642505	N
29:45	642723	N
29:45	642926	N
29:46	643111	N
29:46	643294	N
29:47	643481	N
29:47	643664	N
29:48	643864	N
29:49	644067	N
29:49	644238	V
29:49	644384	V
29:50	644738	N
29:51	644942	N
29:52	645141	N
29:52	645337	N
29:53	645522	N
29:53	645705	N
29:54	645895	N
29:54	646082	N
29:55	646279	N
29:55	646489	N
29:56	646688	N
29:56	646897	N
29:57	647105	N
29:57	647255	V
29:58	647493	N
29:59	647675	N
29:59	647854	N
30:00	648045	N
30:00	648251	N
30:01	648458	N
30:01	648677	N
30:02	648900	N
30:03	649108	N
30:03	649304	N
30:04	649501	N
30:04	649685	N
30:05	649875	N
