0:00	205	/
0:01	500	/
0:02	812	/
0:03	1131	/
0:03	1439	/
0:04	1736	f
0:05	2034	/
0:06	2325	/
0:07	2629	/
0:08	2927	/
0:08	3236	/
0:09	3545	/
0:10	3857	/
0:11	4154	/
0:12	4436	/
0:13	4721	/
0:13	5023	/
0:14	5338	/
0:15	5665	/
0:16	5969	/
0:17	6261	/
0:18	6550	/
0:19	6853	/
0:19	7152	/
0:20	7463	/
0:21	7775	/
0:22	8080	/
0:23	8382	/
0:24	8674	/
0:24	8957	/
0:25	9256	/
0:26	9556	/
0:27	9883	/
0:28	10192	/
0:29	10491	/
0:29	10778	/
0:30	11069	/
0:31	11361	/
0:32	11673	/
0:33	11998	/
0:34	12302	/
0:35	12603	/
0:35	12898	/
0:36	13182	/
0:37	13484	/
0:38	13696	V
0:38	14017	/
0:39	14328	/
0:40	14636	/
0:41	14936	/
0:42	15222	/
0:43	15505	/
0:43	15803	/
0:44	16124	/
0:45	16442	/
0:46	16737	/
0:47	17038	/
0:48	17326	/
0:48	17613	/
0:49	17923	/
0:50	18228	/
0:51	18536	/
0:52	18847	/
0:53	19148	/
0:54	19440	/
0:54	19723	/
0:55	20017	/
0:56	20323	/
0:57	20643	/
0:58	20954	/
0:59	21254	/
0:59	21545	/
1:00	21825	/
1:01	22132	/
1:02	22445	/
1:03	22763	/
1:04	23071	/
1:04	23376	/
1:05	23668	/
1:06	23958	/
1:07	24259	/
1:08	24555	/
1:09	24866	/
1:09	25180	/
1:10	25487	/
1:11	25783	/
1:12	26066	/
1:13	26358	/
1:14	26657	/
1:14	26969	/
1:15	27285	/
1:16	27591	/
1:17	27881	/
1:18	28174	/
1:19	28471	/
1:19	28767	f
1:20	28976	V
1:21	29297	f
1:22	29537	V
1:22	29855	/
1:23	30154	/
1:24	30440	/
1:25	30735	/
1:26	31021	f
1:26	31131	+
1:26	31241	V
1:27	31576	f
1:28	31823	V
1:29	32129	f
1:29	32364	V
1:30	32671	f
1:31	32897	V
1:31	33058	+
1:32	33219	/
1:33	33538	/
1:33	33832	/
1:34	34144	/
1:35	34443	/
1:36	34733	/
1:37	35024	/
1:38	35317	/
1:38	35619	/
1:39	35928	/
1:40	36239	/
1:41	36538	/
1:42	36825	/
1:43	37109	/
1:43	37401	/
1:44	37725	/
1:45	38040	/
1:46	38339	/
1:47	38640	/
1:48	38930	/
1:48	39221	/
1:49	39525	/
1:50	39832	/
1:51	40148	/
1:52	40454	/
1:53	40701	V
1:53	41003	f
1:54	41302	/
1:55	41591	/
1:56	41900	/
1:57	42216	/
1:58	42525	/
1:58	42833	/
1:59	43126	/
2:00	43407	/
2:01	43709	/
2:02	44032	/
2:03	44363	/
2:04	44670	/
2:04	44976	/
2:05	45264	/
2:06	45556	/
2:07	45866	/
2:08	46179	/
2:09	46492	/
2:10	46807	/
2:10	47116	/
2:11	47412	/
2:12	47690	/
2:13	47978	/
2:14	48279	/
2:14	48593	/
2:15	48913	/
2:16	49219	/
2:17	49509	/
2:18	49800	/
2:19	50101	/
2:20	50405	/
2:20	50716	/
2:21	51026	/
2:22	51328	/
2:23	51631	/
2:24	51925	/
2:25	52213	/
2:25	52514	/
2:26	52824	/
2:27	53144	/
2:28	53451	/
2:29	53745	/
2:30	54030	/
2:30	54320	/
2:31	54616	/
2:32	54935	/
2:33	55254	/
2:34	55555	/
2:35	55857	/
2:35	56155	/
2:36	56442	/
2:37	56739	/
2:38	57040	/
2:39	57355	/
2:40	57661	f
2:40	57864	V
2:41	58172	f
2:42	58442	N
2:43	58735	f
2:44	59048	/
2:44	59370	/
2:45	59687	/
2:46	59988	/
2:47	60286	/
2:48	60572	/
2:49	60864	/
2:49	61173	/
2:50	61482	/
2:51	61788	/
2:52	62098	/
2:53	62402	/
2:54	62689	/
2:54	62980	/
2:55	63272	/
2:56	63580	/
2:57	63904	/
2:58	64213	/
2:59	64512	/
2:59	64795	f
3:00	65074	f
3:01	65361	N
3:02	65559	V
3:03	65903	/
3:03	66209	/
3:04	66517	/
3:05	66809	/
3:06	67096	f
3:06	67227	+
3:07	67358	N
3:07	67613	N
3:08	67804	V
3:08	67966	+
3:09	68129	/
3:10	68442	/
3:10	68746	/
3:11	69040	/
3:12	69321	/
3:13	69613	/
3:14	69908	/
3:15	70220	/
3:15	70535	/
3:16	70841	/
3:17	71131	/
3:18	71421	/
3:19	71718	/
3:20	72019	/
3:20	72327	/
3:21	72635	/
3:22	72937	/
3:23	73235	f
3:24	73534	/
3:25	73810	f
3:25	74105	f
3:26	74393	N
3:27	74611	V
3:28	74945	f
3:29	75241	f
3:29	75530	f
3:30	75720	V
3:31	76026	/
3:32	76325	/
3:32	76652	/
3:33	76960	/
3:34	77260	/
3:35	77560	/
3:36	77856	/
3:37	78141	f
3:37	78441	/
3:38	78746	/
3:39	79060	/
3:40	79370	/
3:41	79671	/
3:42	79959	/
3:42	80251	/
3:43	80542	/
3:44	80859	/
3:45	81180	/
3:46	81486	/
3:47	81784	/
3:48	82080	/
3:48	82366	/
3:49	82666	/
3:50	82983	/
3:51	83302	/
3:52	83605	/
3:53	83912	/
3:53	84208	/
3:54	84505	/
3:55	84799	/
3:56	85099	f
3:56	85304	V
3:57	85631	f
3:58	85888	V
3:59	86196	f
4:00	86493	/
4:01	86781	/
4:01	87092	/
4:02	87416	/
4:03	87727	/
4:04	88033	/
4:05	88335	/
4:06	88623	/
4:06	88918	/
4:07	89216	/
4:08	89526	/
4:09	89837	/
4:10	90150	/
4:11	90451	/
4:12	90743	/
4:12	91028	/
4:13	91330	/
4:14	91639	/
4:15	91962	/
4:16	92269	/
4:17	92571	/
4:17	92850	f
4:18	93140	f
4:19	93332	V
4:20	93655	/
4:20	93890	V
4:21	94215	f
4:22	94358	+
4:22	94501	N
4:23	94787	N
4:24	95070	N
4:24	95361	f
4:25	95628	N
4:26	95809	V
4:26	95977	+
4:27	96146	/
4:27	96462	/
4:28	96771	/
4:29	97061	/
4:30	97344	/
4:31	97634	/
4:32	97939	/
4:32	98269	/
4:33	98582	/
4:34	98881	/
4:35	99182	/
4:36	99478	/
4:37	99774	/
4:37	100068	/
4:38	100383	/
4:39	100695	/
4:40	101008	/
4:41	101312	/
4:42	101601	/
4:43	101885	/
4:43	102183	/
4:44	102512	/
4:45	102835	/
4:46	103135	/
4:47	103431	/
4:48	103721	/
4:48	104012	/
4:49	104316	/
4:50	104632	/
4:51	104946	/
4:52	105253	/
4:53	105555	f
4:53	105659	+
4:53	105764	V
4:54	106068	/
4:55	106308	V
4:56	106626	/
4:56	106861	V
4:57	107026	+
4:57	107191	f
4:58	107500	f
4:59	107712	V
5:00	108028	/
5:00	108309	/
5:01	108613	/
5:02	108931	/
5:03	109245	/
5:04	109540	/
5:05	109842	/
5:05	110132	/
5:06	110420	/
5:07	110712	/
5:08	111012	/
5:09	111317	/
5:10	111632	/
5:10	111933	/
5:11	112227	f
5:12	112509	f
5:13	112684	V
5:13	113000	/
5:14	113256	V
5:15	113589	f
5:16	113886	f
5:17	114183	f
5:17	114469	f
5:18	114770	/
5:19	115070	/
5:20	115377	/
5:21	115692	/
5:22	115999	/
5:23	116297	/
5:23	116593	/
5:24	116882	/
5:25	117180	/
5:26	117480	/
5:27	117797	/
5:28	118111	/
5:28	118418	/
5:29	118705	/
5:30	118987	/
5:31	119279	/
5:32	119587	/
5:33	119917	/
5:33	120228	/
5:34	120516	/
5:35	120823	/
5:36	121119	/
5:37	121414	/
5:38	121717	/
5:38	122028	/
5:39	122340	/
5:40	122647	/
5:41	122946	/
5:42	123232	/
5:43	123525	/
5:43	123821	/
5:44	124148	/
5:45	124475	/
5:46	124781	/
5:47	125074	/
5:48	125364	/
5:49	125641	f
5:49	125852	V
5:50	126193	f
5:51	126493	V
5:52	126812	/
5:53	127116	/
5:53	127412	/
5:54	127699	/
5:55	127995	/
5:56	128298	/
5:57	128618	/
5:58	128930	/
5:58	129236	/
5:59	129526	/
6:00	129810	/
6:01	130100	/
6:02	130421	/
6:03	130749	/
6:04	131058	/
6:04	131362	/
6:05	131656	/
6:06	131942	/
6:07	132243	/
6:08	132555	/
6:09	132872	/
6:09	133181	/
6:10	133495	/
6:11	133788	/
6:12	134076	/
6:13	134364	/
6:14	134669	/
6:14	134929	V
6:15	135265	/
6:16	135525	V
6:16	135693	V
6:17	135999	/
6:18	136283	/
6:19	136592	/
6:20	136905	/
6:21	137230	/
6:22	137540	/
6:22	137846	/
6:23	138139	/
6:24	138429	/
6:25	138724	/
6:26	139032	/
6:27	139353	/
6:27	139548	V
6:28	139873	/
6:29	140176	/
6:30	140461	/
6:30	140750	/
6:31	141048	/
6:32	141370	/
6:33	141732	/
6:34	142039	/
6:35	142329	/
6:36	142621	/
6:37	142927	/
6:37	143235	/
6:38	143555	/
6:39	143876	/
6:40	144177	/
6:41	144482	/
6:42	144774	/
6:42	145064	/
6:43	145357	/
6:44	145672	/
6:45	146008	/
6:46	146315	/
6:47	146609	/
6:48	146896	/
6:48	147182	/
6:49	147479	f
6:49	147582	+
6:50	147685	V
6:51	148018	f
6:51	148269	V
6:52	148587	/
6:53	148846	V
6:54	149155	/
6:54	149396	V
6:55	149560	V
6:55	149727	+
6:56	149894	f
6:57	150197	f
6:58	150515	f
6:58	150825	/
6:59	151114	/
7:00	151399	/
7:01	151688	/
7:02	151995	/
7:03	152325	/
7:04	152642	/
7:04	152940	/
7:05	153237	/
7:06	153522	/
7:07	153813	/
7:08	154122	/
7:08	154437	/
7:09	154740	/
7:10	154940	+
7:10	155038	V
7:11	155202	V
7:11	155367	V
7:12	155573	+
7:12	155667	/
7:13	155956	/
7:14	156253	/
7:14	156564	/
7:15	156807	V
7:16	157119	f
7:17	157428	f
7:17	157556	+
7:18	157684	N
7:18	157957	N
7:19	158238	N
7:20	158553	f
7:20	158717	+
7:21	158881	/
7:22	159186	/
7:23	159491	/
7:23	159714	V
7:24	160020	/
7:25	160321	/
7:26	160623	/
7:27	160937	/
7:27	161252	/
7:28	161563	/
7:29	161860	/
7:30	162091	V
7:31	162388	f
7:31	162688	f
7:32	163015	/
7:33	163338	/
7:34	163580	V
7:35	163890	f
7:36	164181	/
7:36	164482	/
7:37	164790	/
7:38	165035	V
7:38	165190	V
7:39	165513	f
7:40	165653	+
7:40	165794	N
7:41	166085	N
7:42	166365	N
7:42	166665	f
7:43	166885	V
7:44	167043	+
7:44	167202	/
7:45	167523	/
7:46	167838	/
7:47	168143	/
7:47	168372	V
7:48	168663	/
7:49	168971	/
7:50	169276	/
7:50	169540	V
7:51	169872	f
7:52	170179	/
7:53	170469	f
7:54	170765	f
7:55	171045	N
7:55	171357	f
7:56	171505	+
7:56	171654	N
7:57	171955	N
7:58	172267	f
7:58	172421	+
7:59	172576	/
8:00	172864	/
8:00	173156	/
8:01	173446	/
8:02	173762	/
8:03	174101	/
8:04	174406	/
8:05	174700	/
8:06	174985	f
8:06	175279	/
8:07	175582	/
8:08	175910	/
8:09	176232	/
8:10	176533	/
8:11	176841	/
8:12	177134	/
8:12	177426	f
8:13	177721	f
8:14	177930	V
8:15	178268	f
8:15	178545	N
8:16	178867	/
8:17	179159	/
8:18	179446	/
8:19	179736	/
8:20	180055	/
8:21	180395	/
8:21	180713	/
8:22	181019	/
8:23	181316	/
8:24	181603	/
8:25	181908	/
8:26	182222	/
8:27	182556	/
8:27	182866	/
8:28	183186	/
8:29	183469	/
8:30	183758	/
8:31	184002	V
8:32	184322	/
8:32	184646	/
8:33	184976	f
8:34	185272	f
8:35	185579	/
8:36	185863	/
8:37	186163	/
8:37	186470	f
8:38	186808	/
8:39	187119	/
8:40	187427	/
8:41	187721	/
8:42	188010	/
8:43	188307	/
8:43	188606	/
8:44	188913	/
8:45	189238	/
8:46	189544	/
8:47	189845	/
8:48	190130	/
8:48	190420	/
8:49	190715	/
8:50	191028	/
8:51	191360	/
8:52	191665	/
8:53	191960	/
8:54	192253	/
8:54	192547	/
8:55	192847	/
8:56	193147	/
8:57	193467	/
8:58	193773	/
8:59	194077	/
8:59	194377	/
9:00	194663	/
9:01	194952	/
9:02	195259	/
9:03	195588	/
9:04	195902	/
9:05	196202	/
9:05	196484	f
9:06	196776	f
9:07	196974	V
9:08	197296	/
9:08	197564	V
9:09	197882	N
9:10	198182	f
9:11	198461	N
9:12	198770	/
9:12	199064	/
9:13	199358	/
9:14	199664	/
9:15	199979	/
9:16	200291	/
9:17	200596	/
9:18	200882	/
9:18	201170	/
9:19	201455	/
9:20	201783	f
9:21	202118	f
9:22	202417	f
9:22	202640	V
9:23	202956	/
9:24	203241	/
9:25	203542	/
9:26	203855	/
9:27	204185	/
9:28	204490	/
9:28	204801	/
9:29	205097	/
9:30	205385	/
9:31	205679	/
9:32	205978	/
9:33	206290	/
9:33	206609	/
9:34	206919	/
9:35	207212	/
9:36	207496	/
9:37	207785	/
9:38	208102	/
9:38	208421	/
9:39	208726	/
9:40	209032	/
9:41	209330	/
9:42	209618	/
9:43	209916	/
9:43	210212	/
9:44	210521	/
9:45	210836	/
9:46	211149	/
9:47	211448	/
9:48	211744	/
9:48	212027	/
9:49	212312	/
9:50	212632	/
9:51	212952	/
9:52	213259	/
9:53	213561	/
9:54	213846	/
9:54	214142	/
9:55	214438	f
9:55	214525	+
9:56	214613	V
9:57	214941	/
9:57	215239	V
9:58	215549	f
9:59	215790	V
9:59	215943	+
10:00	216096	f
10:01	216388	f
10:01	216686	f
10:02	216990	f
10:03	217327	/
10:04	217634	/
10:05	217932	/
10:06	218214	/
10:06	218509	/
10:07	218810	/
10:08	219126	/
10:09	219451	/
10:10	219754	/
10:11	220049	/
10:12	220349	/
10:12	220644	/
10:13	220945	/
10:14	221258	/
10:15	221588	/
10:16	221893	/
10:17	222197	/
10:18	222485	/
10:18	222774	/
10:19	223071	/
10:20	223391	/
10:21	223749	/
10:22	224059	/
10:23	224353	/
10:24	224642	/
10:24	224924	f
10:25	225231	/
10:26	225553	/
10:27	225878	/
10:28	226179	/
10:29	226488	/
10:29	226782	/
10:30	227070	/
10:31	227366	/
10:32	227670	/
10:33	227981	/
10:34	228297	/
10:35	228602	/
10:35	228892	/
10:36	229175	/
10:37	229476	/
10:38	229795	/
10:39	230127	/
10:40	230430	/
10:40	230732	/
10:41	231024	/
10:42	231310	/
10:43	231612	/
10:44	231916	/
10:45	232221	/
10:45	232536	/
10:46	232844	/
10:47	233136	/
10:48	233418	/
10:49	233706	/
10:50	234004	/
10:50	234324	/
10:51	234646	/
10:52	234948	/
10:53	235243	/
10:54	235531	/
10:55	235830	/
10:55	236135	/
10:56	236442	/
10:57	236756	/
10:58	237057	/
10:59	237353	/
11:00	237649	/
11:00	237943	/
11:01	238239	/
11:02	238544	/
11:03	238875	/
11:04	239178	/
11:05	239476	/
11:06	239762	/
11:06	240052	/
11:07	240346	/
11:08	240658	/
11:09	240985	/
11:10	241293	/
11:11	241590	/
11:11	241886	/
11:12	242183	/
11:13	242484	/
11:14	242789	/
11:15	243111	/
11:16	243415	/
11:16	243719	/
11:17	244015	/
11:18	244298	/
11:19	244589	/
11:20	244896	/
11:21	245222	/
11:22	245534	/
11:22	245832	/
11:23	246123	/
11:24	246411	/
11:25	246707	/
11:26	247015	/
11:27	247331	/
11:27	247640	/
11:28	247940	/
11:29	248243	/
11:30	248530	/
11:31	248824	/
11:32	249121	/
11:32	249433	/
11:33	249741	/
11:34	250053	/
11:35	250352	/
11:36	250640	/
11:36	250856	V
11:37	251164	f
11:38	251492	/
11:39	251823	f
11:40	252100	f
11:40	252282	V
11:41	252454	V
11:42	252747	f
11:42	253049	f
11:43	253333	f
11:43	253430	+
11:44	253527	V
11:45	253857	/
11:45	254097	V
11:46	254421	f
11:47	254661	V
11:47	254814	+
11:48	254967	/
11:49	255259	/
11:49	255472	V
11:50	255785	/
11:51	256111	/
11:52	256420	/
11:53	256718	/
11:53	257007	/
11:54	257295	/
11:55	257606	/
11:56	257919	/
11:57	258233	/
11:58	258543	/
11:59	258846	/
11:59	259139	/
12:00	259388	V
12:01	259714	f
12:02	260012	/
12:03	260326	/
12:04	260647	/
12:04	260888	V
12:05	261203	/
12:06	261486	/
12:07	261760	V
12:07	262079	/
12:08	262410	/
12:09	262753	/
12:10	263060	/
12:11	263301	V
12:12	263609	/
12:13	263918	/
12:13	264227	/
12:14	264540	/
12:15	264858	/
12:16	265094	V
12:17	265413	/
12:18	265709	/
12:18	265999	/
12:19	266289	/
12:20	266604	/
12:21	266867	V
12:22	267186	f
12:23	267480	f
12:23	267778	f
12:24	268065	f
12:25	268233	V
12:25	268535	/
12:26	268859	/
12:27	269178	/
12:28	269477	/
12:28	269596	+
12:29	269715	V
12:30	270029	/
12:30	270270	V
12:31	270581	/
12:32	270822	V
12:33	271159	/
12:33	271406	V
12:34	271569	+
12:34	271733	/
12:35	272022	f
12:36	272308	/
12:37	272601	/
12:38	272913	/
12:38	273236	/
12:39	273554	/
12:40	273855	/
12:41	274150	/
12:42	274384	V
12:43	274689	f
12:43	274992	f
12:44	275318	/
12:45	275618	f
12:46	275936	/
12:47	276237	/
12:48	276523	/
12:48	276811	/
12:49	277109	/
12:50	277412	/
12:51	277671	V
12:52	278004	/
12:53	278300	/
12:53	278590	/
12:54	278879	/
12:55	279186	/
12:56	279501	/
12:57	279733	V
12:57	280062	/
12:58	280369	/
12:59	280663	/
13:00	280952	/
13:01	281251	/
13:02	281554	f
13:02	281869	/
13:03	282192	/
13:04	282498	/
13:05	282736	V
13:05	282922	~
13:06	283039	/
13:07	283336	/
13:07	283616	/
13:08	283878	~
13:08	283949	/
13:09	284197	V
13:10	284514	f
13:10	284647	+
13:11	284781	N
13:11	285065	N
13:12	285330	N
13:13	285630	N
13:14	285882	N
13:14	286148	N
13:15	286438	N
13:16	286696	N
13:17	286959	N
13:17	287144	V
13:18	287419	N
13:19	287695	N
13:19	287952	N
13:20	288215	N
13:21	288487	N
13:22	288789	f
13:22	289041	N
13:23	289286	N
13:23	289435	+
13:24	289584	/
13:25	289873	/
13:26	290177	/
13:26	290487	f
13:27	290618	+
13:27	290750	N
13:28	291025	N
13:29	291268	N
13:29	291560	N
13:30	291862	f
13:31	292132	N
13:32	292375	N
13:32	292642	N
13:33	292890	N
13:34	293194	f
13:35	293466	N
13:35	293739	N
13:36	294039	f
13:37	294310	N
13:38	294608	N
13:38	294811	V
13:39	295146	f
13:40	295298	+
13:40	295451	/
13:41	295746	/
13:42	296031	/
13:43	296325	/
13:43	296634	/
13:44	296948	/
13:45	297257	/
13:46	297563	/
13:47	297864	f
13:48	298119	N
13:48	298299	V
13:49	298616	f
13:49	298753	+
13:50	298891	N
13:50	299142	N
13:51	299415	N
13:52	299667	N
13:53	299971	f
13:53	300237	N
13:54	300485	N
13:54	300578	+
13:55	300671	V
13:56	301002	f
13:56	301236	V
13:57	301578	f
13:58	301806	V
13:58	301963	+
13:59	302121	f
14:00	302406	f
14:00	302717	f
14:01	302980	N
14:02	303304	f
14:03	303575	N
14:04	303844	N
14:04	304042	V
14:05	304345	f
14:05	304410	~
14:06	304560	V
14:06	304865	/
14:07	305152	f
14:08	305354	~
14:08	305474	f
14:08	305637	+
14:09	305800	/
14:10	306106	/
14:11	306401	f
14:11	306666	N
14:12	306846	V
14:13	307164	f
14:13	307295	+
14:13	307427	N
14:14	307732	N
14:15	308001	N
14:16	308319	f
14:17	308614	f
14:18	308911	/
14:18	309199	f
14:19	309352	+
14:19	309506	/
14:20	309815	/
14:21	310148	/
14:22	310452	/
14:23	310746	f
14:23	310852	+
14:23	310958	V
14:24	311255	f
14:25	311505	V
14:26	311835	/
14:27	312130	V
14:27	312452	f
14:28	312696	V
14:29	312852	+
14:29	313009	/
14:30	313303	/
14:31	313605	/
14:31	313903	/
14:32	314218	/
14:33	314537	/
14:34	314844	/
14:35	315147	/
14:36	315438	/
14:37	315726	/
14:37	316033	/
14:38	316376	f
14:39	316518	+
14:39	316661	N
14:40	316936	N
14:41	317249	f
14:42	317527	f
14:42	317821	f
14:43	318114	N
14:44	318385	N
14:45	318676	N
14:46	318976	N
14:46	319293	f
14:47	319570	N
14:48	319750	V
14:48	320030	N
14:49	320322	N
14:50	320525	V
14:51	320854	f
14:52	321168	f
14:52	321324	+
14:53	321480	/
14:53	321768	/
14:54	322050	/
14:55	322359	/
14:56	322612	V
14:57	322957	N
14:57	323279	f
14:58	323558	N
14:59	323863	/
15:00	324155	/
15:01	324461	/
15:01	324684	V
15:02	325025	f
15:03	325324	f
15:04	325547	V
15:05	325839	N
15:05	326136	f
15:06	326414	f
15:07	326545	+
15:07	326677	N
15:08	326915	N
15:08	327217	N
15:09	327501	N
15:10	327761	N
15:11	328064	f
15:11	328311	N
15:12	328523	V
15:13	328843	f
15:14	329099	N
15:15	329412	N
15:15	329722	f
15:16	330018	N
15:17	330285	N
15:17	330462	V
15:18	330618	+
15:18	330775	/
15:19	331073	/
15:20	331368	/
15:21	331685	/
15:22	331998	f
15:22	332199	V
15:23	332481	N
15:24	332772	f
15:24	332903	+
15:25	333034	N
15:25	333288	N
15:26	333591	N
15:27	333925	f
15:28	334213	N
15:29	334492	N
15:29	334744	N
15:30	334925	V
15:31	335237	f
15:31	335512	N
15:32	335757	N
15:33	336018	N
15:34	336288	N
15:34	336561	N
15:35	336793	N
15:36	337037	N
15:36	337275	N
15:37	337582	f
15:38	337852	N
15:39	338059	V
15:39	338352	N
15:40	338616	N
15:41	338853	N
15:42	339146	f
15:42	339320	V
15:43	339608	N
15:43	339802	V
15:44	340152	/
15:45	340446	N
15:46	340696	N
15:47	340962	N
15:47	341216	N
15:48	341368	+
15:48	341521	/
15:49	341819	/
15:50	342131	f
15:50	342271	+
15:51	342411	N
15:51	342691	N
15:52	342959	N
15:53	343246	N
15:54	343500	N
15:55	343801	f
15:55	344067	N
15:56	344413	f
15:57	344732	f
15:58	345002	N
15:58	345196	V
15:59	345500	f
16:00	345787	f
16:00	345943	+
16:01	346100	/
16:02	346414	/
16:03	346737	f
16:03	346941	V
16:04	347106	V
16:05	347439	f
16:05	347566	+
16:05	347693	N
16:06	347932	N
16:07	348194	N
16:07	348465	N
16:08	348743	N
16:09	349024	N
16:10	349324	N
16:11	349570	N
16:11	349805	N
16:12	349947	+
16:12	350090	/
16:13	350410	/
16:14	350719	f
16:14	350868	+
16:15	351017	N
16:15	351275	N
16:16	351599	f
16:17	351872	f
16:18	352135	N
16:18	352389	N
16:19	352584	V
16:20	352900	f
16:20	353151	N
16:21	353412	N
16:22	353673	N
16:23	353933	N
16:23	354182	N
16:24	354418	N
16:25	354680	N
16:25	354928	N
16:26	355209	N
16:27	355565	f
16:28	355859	f
16:29	356153	f
16:29	356394	N
16:30	356628	N
16:31	356869	N
16:32	357128	N
16:32	357387	N
16:33	357679	N
16:34	357941	N
16:34	358166	N
16:35	358395	N
16:36	358692	f
16:37	358938	N
16:37	359122	V
16:38	359416	N
16:38	359631	V
16:39	359989	f
16:40	360292	f
16:41	360562	N
16:42	360820	N
16:42	361042	N
16:43	361291	N
16:44	361562	N
16:45	361910	N
16:45	362107	V
16:46	362395	N
16:47	362634	N
16:48	362924	N
16:48	363168	N
16:49	363404	N
16:50	363637	N
16:50	363944	N
16:51	364238	N
16:52	364442	V
16:53	364767	f
16:53	365033	N
16:54	365264	N
16:55	365501	N
16:55	365743	N
16:56	365956	V
16:57	366266	N
16:58	366555	N
16:58	366824	N
16:59	367127	/
17:00	367403	f
17:01	367663	N
17:01	367854	V
17:02	368030	V
17:03	368349	N
17:03	368596	N
17:04	368756	+
17:04	368917	/
17:05	369219	/
17:06	369504	f
17:07	369761	N
17:07	370005	V
17:08	370155	V
17:09	370479	f
17:09	370725	V
17:10	370854	+
17:10	370984	N
17:11	371223	N
17:11	371406	V
17:12	371664	N
17:13	371956	f
17:13	372212	N
17:14	372524	N
17:15	372729	V
17:16	373052	f
17:16	373301	N
17:17	373474	V
17:18	373770	f
17:18	374032	N
17:19	374305	N
17:20	374621	f
17:21	374806	V
17:22	375131	f
17:22	375439	/
17:23	375682	V
17:24	375978	f
17:25	376253	N
17:25	376514	N
17:26	376789	N
17:27	376958	+
17:27	377127	/
17:28	377439	/
17:29	377738	/
17:30	378009	f
17:30	378125	+
17:30	378241	N
17:31	378486	N
17:32	378737	N
17:32	378985	V
17:33	379302	f
17:34	379457	+
17:34	379612	/
17:35	379910	/
17:36	380198	f
17:36	380504	/
17:37	380793	f
17:38	380915	+
17:38	381038	N
17:39	381313	N
17:39	381565	N
17:40	381882	f
17:41	382134	N
17:42	382393	N
17:42	382635	N
17:43	382905	N
17:44	383179	N
17:45	383487	N
17:45	383688	V
17:46	384004	f
17:47	384321	f
17:48	384594	f
17:48	384802	V
17:49	385124	f
17:50	385400	N
17:51	385694	N
17:52	386017	f
17:53	386282	N
17:53	386523	N
17:54	386673	+
17:54	386824	/
17:55	387123	/
17:56	387419	/
17:57	387738	f
17:57	388067	/
17:58	388370	/
17:59	388662	/
18:00	388949	/
18:01	389235	/
18:02	389546	/
18:02	389877	f
18:03	390094	V
18:04	390424	f
18:05	390651	V
18:05	390956	f
18:06	391074	+
18:06	391193	N
18:07	391449	N
18:08	391741	N
18:08	391906	+
18:09	392072	/
18:09	392387	/
18:10	392690	f
18:11	392818	+
18:11	392947	N
18:12	393212	N
18:12	393389	V
18:13	393690	f
18:14	393894	V
18:15	394253	/
18:16	394566	f
18:16	394838	N
18:17	395030	V
18:18	395329	f
18:18	395481	+
18:18	395634	/
18:19	395943	/
18:20	396261	/
18:21	396585	/
18:22	396892	/
18:23	397197	/
18:24	397488	/
18:24	397776	/
18:25	398075	/
18:26	398389	f
18:27	398655	N
18:28	398980	/
18:29	399276	f
18:29	399574	/
18:30	399859	/
18:31	400171	/
18:32	400499	/
18:33	400852	f
18:34	401157	f
18:35	401466	/
18:35	401756	/
18:36	402055	/
18:37	402359	/
18:38	402683	/
18:39	403010	/
18:40	403319	/
18:41	403623	/
18:41	403913	/
18:42	404198	/
18:43	404498	/
18:44	404806	/
18:45	405133	/
18:46	405448	/
18:47	405747	/
18:47	406034	/
18:48	406329	/
18:49	406630	/
18:50	406940	/
18:51	407260	/
18:52	407568	/
18:52	407867	/
18:53	408163	/
18:54	408450	/
18:55	408745	/
18:56	409043	/
18:57	409364	/
18:58	409685	/
18:58	409992	/
18:59	410278	/
19:00	410563	/
19:01	410850	/
19:02	411152	/
19:03	411484	/
19:03	411801	/
19:04	412098	/
19:05	412397	/
19:06	412690	/
19:07	412988	/
19:08	413284	/
19:08	413596	/
19:09	413911	/
19:10	414222	/
19:11	414522	/
19:12	414806	/
19:13	415093	/
19:13	415386	/
19:14	415718	/
19:15	416048	/
19:16	416346	/
19:17	416643	/
19:18	416923	/
19:18	417225	/
19:19	417528	/
19:20	417851	f
19:21	418157	f
19:22	418464	f
19:23	418751	N
19:24	419048	f
19:24	419342	f
19:25	419641	/
19:26	419946	/
19:27	420266	/
19:28	420577	/
19:29	420870	/
19:29	421175	/
19:30	421458	/
19:31	421760	/
19:32	422088	/
19:33	422430	/
19:34	422732	/
19:35	423033	/
19:35	423320	/
19:36	423613	/
19:37	423924	/
19:38	424229	/
19:39	424554	/
19:40	424863	/
19:41	425171	/
19:41	425466	/
19:42	425752	/
19:43	426041	/
19:44	426349	/
19:45	426669	/
19:46	426980	/
19:46	427282	/
19:47	427575	/
19:48	427858	/
19:49	428168	/
19:50	428473	/
19:51	428794	/
19:51	429099	f
19:52	429411	/
19:53	429704	/
19:54	429997	/
19:55	430295	/
19:56	430599	/
19:56	430907	/
19:57	431213	f
19:58	431506	N
19:59	431814	f
19:59	431944	+
20:00	432074	N
20:00	432333	N
20:01	432598	N
20:02	432916	f
20:03	433088	+
20:03	433260	/
20:04	433565	/
20:05	433858	/
20:05	434145	f
20:06	434449	f
20:07	434734	N
20:08	435059	/
20:09	435379	/
20:10	435685	/
20:11	435991	/
20:11	436286	/
20:12	436576	/
20:13	436878	/
20:14	437173	f
20:15	437522	/
20:16	437839	/
20:17	438128	f
20:17	438418	f
20:18	438719	/
20:19	439021	/
20:20	439341	/
20:21	439670	f
20:22	439976	f
20:23	440280	f
20:23	440589	/
20:24	440880	/
20:25	441180	f
20:26	441501	f
20:27	441831	/
20:28	442145	/
20:29	442449	/
20:29	442737	/
20:30	443029	/
20:31	443328	/
20:32	443651	/
20:33	443987	/
20:34	444296	/
20:34	444595	/
20:35	444889	/
20:36	445172	f
20:37	445477	f
20:38	445808	/
20:39	446127	/
20:40	446434	/
20:40	446745	/
20:41	447035	/
20:42	447324	/
20:43	447624	/
20:44	447923	f
20:45	448208	N
20:45	448408	V
20:46	448728	/
20:47	449029	f
20:48	449312	/
20:48	449602	/
20:49	449909	f
20:50	450232	/
20:51	450531	f
20:52	450847	f
20:53	451120	N
20:53	451414	f
20:54	451722	/
20:55	452019	/
20:56	452322	/
20:57	452639	/
20:58	452955	/
20:59	453255	/
20:59	453544	/
21:00	453831	/
21:01	454131	/
21:02	454443	/
21:03	454768	/
21:04	455081	/
21:04	455383	/
21:05	455669	/
21:06	455964	/
21:07	456270	/
21:08	456581	f
21:09	456899	f
21:10	457210	/
21:10	457510	/
21:11	457810	f
21:12	457931	+
21:12	458052	N
21:13	458335	N
21:13	458530	V
21:14	458857	f
21:15	459176	N
21:15	459335	+
21:16	459494	/
21:17	459790	/
21:17	460076	/
21:18	460368	/
21:19	460670	/
21:20	460981	f
21:21	461322	f
21:22	461621	f
21:23	461919	/
21:23	462219	/
21:24	462511	/
21:25	462811	/
21:26	463119	/
21:27	463438	/
21:28	463740	/
21:29	464045	/
21:29	464338	/
21:30	464627	/
21:31	464918	/
21:32	465225	/
21:33	465558	/
21:34	465873	/
21:34	466169	/
21:35	466461	/
21:36	466746	/
21:37	467044	/
21:38	467367	/
21:39	467687	/
21:39	467992	/
21:40	468299	/
21:41	468598	/
21:42	468884	/
21:43	469173	/
21:44	469474	/
21:44	469790	/
21:45	470103	/
21:46	470406	f
21:47	470704	/
21:48	470993	/
21:49	471281	/
21:49	471590	/
21:50	471912	/
21:51	472224	/
21:52	472527	/
21:53	472831	/
21:54	473114	/
21:55	473412	/
21:55	473719	/
21:56	474035	/
21:57	474350	/
21:58	474660	/
21:59	474960	/
22:00	475245	f
22:00	475541	/
22:01	475844	/
22:02	476156	/
22:03	476483	/
22:04	476790	/
22:05	477093	/
22:06	477376	/
22:06	477674	/
22:07	477989	/
22:08	478330	/
22:09	478658	/
22:10	478965	/
22:11	479261	/
22:12	479554	/
22:12	479857	/
22:13	480162	/
22:14	480473	/
22:15	480810	/
22:16	481119	/
22:17	481419	/
22:18	481705	/
22:18	481999	/
22:19	482304	/
22:20	482628	/
22:21	482964	/
22:22	483270	/
22:23	483566	/
22:24	483858	/
22:24	483993	+
22:24	484128	N
22:25	484408	N
22:26	484601	V
22:26	484771	V
22:27	485103	f
22:28	485352	N
22:28	485580	N
22:29	485824	N
22:30	486052	N
22:30	486292	N
22:31	486503	N
22:32	486731	N
22:32	486982	N
22:33	487242	N
22:34	487483	N
22:34	487715	N
22:35	487945	N
22:36	488177	N
22:36	488428	N
22:37	488683	N
22:38	488897	V
22:38	489225	f
22:39	489490	N
22:40	489745	N
22:41	490012	N
22:41	490267	N
22:42	490499	N
22:43	490727	N
22:43	491037	f
22:44	491336	N
22:45	491498	+
22:45	491661	/
22:46	491971	/
22:47	492267	/
22:48	492545	f
22:49	492844	/
22:49	493151	/
22:50	493468	/
22:51	493787	f
22:52	494093	/
22:53	494398	f
22:54	494675	f
22:54	494969	f
22:55	495281	/
22:56	495599	/
22:57	495911	/
22:58	496220	/
22:59	496524	/
23:00	496811	/
23:00	497101	/
23:01	497403	/
23:02	497705	/
23:03	498036	/
23:04	498346	/
23:05	498632	/
23:05	498932	/
23:06	499229	/
23:07	499538	/
23:08	499863	f
23:09	500191	f
23:10	500487	f
23:11	500794	/
23:11	501080	f
23:12	501385	/
23:13	501686	/
23:14	501987	/
23:15	502308	/
23:16	502629	/
23:17	502929	/
23:17	503210	f
23:18	503496	f
23:19	503775	N
23:19	503875	+
23:19	503976	V
23:20	504307	f
23:21	504558	V
23:22	504872	f
23:23	505092	V
23:23	505242	+
23:23	505393	f
23:24	505688	f
23:25	505988	f
23:26	506290	f
23:27	506606	/
23:28	506918	/
23:28	507219	/
23:29	507516	/
23:30	507804	/
23:31	508099	/
23:32	508397	/
23:33	508722	/
23:33	509030	/
23:34	509335	/
23:35	509626	/
23:36	509912	/
23:37	510201	/
23:38	510505	/
23:38	510828	/
23:39	511143	/
23:40	511437	f
23:41	511738	f
23:42	512036	/
23:43	512329	/
23:43	512620	/
23:44	512934	/
23:45	513243	/
23:46	513550	/
23:47	513853	/
23:48	514139	/
23:48	514423	/
23:49	514726	/
23:50	515049	/
23:51	515375	/
23:52	515676	/
23:53	515971	/
23:54	516261	/
23:54	516556	/
23:55	516862	/
23:56	517176	/
23:57	517495	/
23:58	517800	/
23:59	518109	/
23:59	518398	/
24:00	518685	/
24:01	518983	/
24:02	519297	/
24:03	519624	/
24:04	519939	/
24:04	520194	V
24:05	520499	/
24:06	520752	V
24:07	521078	/
24:08	521405	/
24:09	521765	/
24:10	522069	/
24:11	522374	/
24:11	522587	V
24:12	522892	/
24:13	523200	/
24:14	523509	/
24:15	523822	/
24:15	524141	/
24:16	524382	V
24:17	524697	/
24:18	524977	/
24:19	525272	/
24:19	525571	/
24:20	525829	V
24:21	526181	/
24:22	526481	/
24:23	526776	/
24:24	527069	/
24:24	527367	/
24:25	527589	V
24:26	527919	/
24:27	528235	/
24:28	528545	/
24:29	528849	/
24:29	529060	V
24:30	529367	/
24:31	529667	/
24:32	529960	/
24:33	530289	/
24:33	530609	/
24:34	530849	V
24:35	531165	/
24:36	531450	/
24:37	531736	/
24:37	532045	/
24:38	532291	V
24:39	532631	/
24:40	532935	/
24:41	533235	/
24:42	533528	/
24:42	533823	/
24:43	534050	V
24:44	534364	f
24:45	534698	/
24:46	535008	/
24:46	535312	/
24:47	535606	/
24:48	535889	/
24:49	536184	/
24:50	536506	/
24:51	536833	/
24:52	537142	/
24:52	537394	V
24:53	537704	/
24:54	537991	/
24:55	538295	/
24:56	538605	/
24:57	538927	/
24:57	539179	V
24:58	539504	/
24:59	539802	/
25:00	540095	/
25:01	540385	/
25:01	540691	/
25:02	540941	V
25:03	541286	/
25:04	541599	/
25:05	541897	/
25:06	542180	/
25:06	542404	V
25:07	542733	/
25:08	543045	/
25:09	543369	/
25:10	543676	/
25:11	543976	/
25:11	544225	V
25:12	544534	/
25:13	544829	/
25:14	545134	/
25:15	545444	/
25:16	545760	/
25:16	546007	V
25:17	546320	/
25:18	546601	/
25:19	546895	/
25:19	547190	/
25:20	547507	/
25:21	547765	V
25:22	548087	/
25:23	548381	/
25:24	548673	/
25:24	548974	/
25:25	549270	/
25:26	549507	V
25:27	549836	/
25:28	550142	/
25:29	550447	/
25:29	550739	/
25:30	551025	/
25:31	551262	V
25:32	551574	/
25:33	551893	/
25:33	552214	/
25:34	552520	/
25:35	552811	/
25:36	553033	V
25:37	553334	/
25:37	553635	/
25:38	553961	/
25:39	554277	/
25:40	554502	V
25:41	554821	/
25:41	555116	/
25:42	555408	/
25:43	555708	/
25:44	556009	/
25:45	556332	/
25:46	556641	/
25:47	556943	/
25:47	557235	/
25:48	557525	/
25:49	557813	/
25:50	558129	/
25:51	558460	/
25:52	558770	/
25:52	559071	/
25:53	559364	/
25:54	559646	/
25:55	559951	/
25:56	560265	/
25:57	560591	/
25:58	560901	/
25:58	561205	/
25:59	561499	/
26:00	561789	/
26:01	562083	/
26:02	562388	/
26:03	562704	/
26:03	563021	/
26:04	563328	/
26:05	563624	/
26:06	563903	/
26:07	564197	/
26:08	564519	/
26:09	564847	/
26:09	565158	/
26:10	565463	/
26:11	565754	/
26:12	566043	/
26:13	566350	/
26:14	566650	/
26:14	566965	/
26:15	567285	/
26:16	567594	/
26:17	567893	/
26:18	568173	/
26:19	568463	/
26:19	568766	/
26:20	569087	/
26:21	569413	/
26:22	569715	/
26:23	570008	/
26:24	570294	/
26:24	570598	/
26:25	570897	/
26:26	571213	/
26:27	571532	/
26:28	571834	/
26:29	572138	/
26:30	572431	/
26:30	572722	/
26:31	573021	/
26:32	573332	/
26:33	573671	/
26:34	573978	/
26:35	574273	/
26:35	574558	/
26:36	574852	/
26:37	575154	/
26:38	575478	/
26:39	575816	/
26:40	576115	/
26:41	576417	/
26:41	576717	/
26:42	577008	/
26:43	577308	/
26:44	577616	/
26:45	577943	/
26:46	578252	/
26:47	578559	/
26:47	578846	/
26:48	579134	/
26:49	579430	/
26:50	579752	/
26:51	580099	/
26:52	580404	/
26:53	580702	/
26:53	580996	/
26:54	581190	|
26:54	581285	/
26:55	581586	/
26:56	581898	/
26:57	582220	/
26:58	582523	/
26:58	582834	/
26:59	583123	/
27:00	583409	/
27:01	583707	/
27:02	584012	/
27:03	584332	/
27:03	584639	f
27:04	584949	/
27:05	585243	/
27:06	585520	f
27:06	585719	V
27:07	586045	/
27:08	586365	f
27:09	586684	f
27:10	586978	f
27:11	587277	f
27:12	587572	/
27:12	587871	/
27:13	588166	/
27:14	588471	/
27:15	588791	/
27:16	589104	/
27:17	589402	/
27:18	589688	/
27:18	589972	/
27:19	590268	/
27:20	590579	/
27:21	590897	/
27:22	591203	/
27:23	591504	/
27:23	591793	/
27:24	592088	/
27:25	592390	/
27:26	592697	/
27:27	593012	/
27:28	593325	/
27:28	593621	/
27:29	593917	/
27:30	594208	/
27:31	594503	/
27:32	594805	/
27:33	595127	/
27:34	595447	/
27:34	595754	/
27:35	596043	/
27:36	596329	/
27:37	596623	/
27:38	596931	/
27:39	597267	/
27:39	597585	/
27:40	597875	f
27:41	598171	f
27:42	598473	/
27:43	598772	/
27:44	599072	/
27:44	599389	/
27:45	599707	/
27:46	600014	/
27:47	600315	/
27:48	600599	/
27:49	600891	/
27:49	601194	/
27:50	601523	f
27:51	601748	V
27:52	602071	/
27:53	602301	V
27:53	602610	/
27:54	602895	/
27:55	603191	/
27:56	603509	/
27:57	603834	/
27:58	604135	/
27:59	604444	/
27:59	604741	/
28:00	605030	/
28:01	605324	/
28:02	605627	/
28:03	605943	/
28:04	606260	/
28:04	606568	/
28:05	606858	/
28:06	607143	/
28:07	607438	/
28:08	607756	/
28:09	608085	/
28:09	608392	/
28:10	608697	/
28:11	608991	/
28:12	609280	/
28:13	609583	/
28:14	609888	/
28:14	610195	/
28:15	610513	/
28:16	610824	/
28:17	611118	/
28:18	611405	/
28:19	611694	/
28:19	611994	/
28:20	612318	/
28:21	612644	/
28:22	612947	/
28:23	613242	/
28:24	613532	/
28:25	613836	/
28:25	614146	/
28:26	614458	/
28:27	614776	/
28:28	615083	/
28:29	615383	/
28:30	615678	/
28:31	615971	/
28:31	616269	/
28:32	616588	/
28:33	616928	/
28:34	617232	/
28:35	617529	/
28:36	617819	/
28:36	618105	/
28:37	618412	/
28:38	618747	/
28:39	619074	/
28:40	619378	/
28:41	619677	/
28:42	619971	/
28:42	620276	/
28:43	620574	/
28:44	620889	/
28:45	621214	/
28:46	621522	/
28:47	621827	/
28:48	622117	/
28:48	622402	/
28:49	622698	/
28:50	623028	/
28:51	623353	/
28:52	623655	/
28:53	623955	/
28:54	624243	/
28:54	624538	/
28:55	624841	/
28:56	625147	/
28:57	625468	/
28:58	625774	/
28:59	626083	/
28:59	626377	/
29:00	626658	/
29:01	626950	/
29:02	627260	/
29:03	627575	/
29:04	627885	/
29:04	628190	/
29:05	628481	/
29:06	628765	/
29:07	629070	/
29:08	629378	/
29:09	629701	/
29:10	630010	/
29:10	630312	/
29:11	630608	/
29:12	630898	/
29:13	631193	/
29:14	631493	/
29:15	631805	/
29:15	632128	/
29:16	632441	/
29:17	632733	/
29:18	633016	/
29:19	633312	/
29:20	633611	/
29:20	633933	/
29:21	634258	/
29:22	634562	/
29:23	634853	/
29:24	635146	/
29:25	635442	/
29:25	635749	/
29:26	636061	/
29:27	636374	/
29:28	636678	/
29:29	636981	/
29:30	637271	/
29:31	637566	/
29:31	637861	/
29:32	638173	/
29:33	638514	/
29:34	638820	/
29:35	639113	/
29:36	639403	/
29:36	639696	/
29:37	639996	/
29:38	640326	/
29:39	640652	/
29:40	640956	/
29:41	641259	/
29:42	641554	/
29:42	641851	/
29:43	642151	/
29:44	642454	/
29:45	642775	/
29:46	643084	/
29:47	643384	/
29:47	643675	/
29:48	643966	/
29:49	644254	/
29:50	644575	/
29:51	644899	/
29:52	645206	/
29:53	645506	/
29:53	645800	/
29:54	646084	/
29:55	646388	/
29:56	646701	/
29:57	647019	/
29:58	647324	/
29:58	647629	/
29:59	647923	/
30:00	648212	/
30:01	648506	/
30:02	648805	/
30:03	649114	/
30:03	649429	/
30:04	649738	/
