0:00	300	N
0:01	614	N
0:02	887	N
0:03	1206	N
0:03	1417	N
0:04	1708	N
0:05	1924	N
0:06	2207	N
0:06	2478	N
0:07	2724	N
0:08	3011	N
0:08	3230	N
0:09	3457	N
0:10	3864	N
0:11	4277	N
0:12	4580	N
0:13	4903	N
0:14	5205	N
0:15	5571	N
0:16	5847	N
0:16	6059	N
0:17	6355	N
0:18	6687	N
0:19	7118	N
0:20	7387	N
0:21	7800	N
0:22	8212	N
0:23	8448	N
0:24	8730	N
0:24	8990	N
0:25	9236	N
0:26	9542	N
0:27	9882	N
0:28	10235	N
0:29	10532	N
0:29	10791	N
0:30	11023	N
0:31	11277	N
0:32	11543	N
0:32	11807	N
0:33	12147	N
0:34	12348	N
0:35	12706	N
0:36	13013	N
0:36	13315	N
0:37	13607	N
0:38	13863	V
0:39	14141	N
0:40	14415	N
0:40	14642	N
0:41	14962	N
0:42	15230	N
0:43	15578	N
0:44	15845	N
0:44	16093	N
0:45	16362	N
0:46	16617	N
0:46	16891	N
0:47	17195	N
0:48	17469	N
0:49	17750	N
0:49	17992	N
0:50	18290	N
0:51	18567	N
0:52	18792	N
0:53	19172	N
0:54	19457	N
0:55	19825	N
0:55	20030	N
0:56	20280	N
0:57	20653	N
0:58	20945	N
0:58	21178	N
0:59	21597	N
1:00	21841	N
1:01	22048	N
1:01	22299	N
1:02	22547	N
1:03	22841	N
1:04	23054	N
1:04	23352	N
1:05	23632	N
1:06	23879	N
1:07	24230	N
1:07	24435	V
1:08	24748	N
1:09	25015	N
1:10	25310	N
1:10	25515	N
1:11	25831	N
1:12	26101	N
1:13	26440	N
1:14	26652	N
1:14	26943	N
1:15	27173	N
1:16	27475	N
1:16	27694	V
1:17	27987	N
1:18	28305	N
1:19	28516	V
1:19	28783	N
1:20	29086	N
1:21	29353	N
1:22	29596	N
1:22	29843	N
1:23	30053	N
1:24	30378	N
1:25	30675	N
1:26	30967	N
1:26	31185	N
1:27	31453	N
1:28	31725	N
1:28	31980	N
1:29	32285	N
1:30	32633	N
1:31	32993	N
1:31	33119	+
1:32	33245	V
1:33	33567	N
1:34	33848	N
1:34	34117	V
1:35	34413	N
1:36	34650	N
1:36	34852	V
1:37	35214	N
1:38	35452	N
1:39	35656	V
1:39	35906	N
1:40	36248	N
1:41	36456	V
1:41	36627	+
1:42	36799	N
1:42	37050	N
1:43	37354	N
1:44	37659	N
1:45	37890	N
1:46	38182	N
1:46	38405	N
1:47	38688	N
1:48	38943	N
1:48	39235	N
1:49	39525	N
1:50	39748	N
1:51	40021	N
1:52	40328	N
1:52	40641	N
1:53	40993	N
1:54	41240	N
1:55	41498	N
1:56	41929	N
1:57	42233	N
1:57	42449	N
1:59	42893	N
1:59	43095	N
2:00	43421	N
2:01	43693	N
2:02	44024	N
2:02	44248	N
2:03	44536	N
2:04	44854	N
2:05	45196	N
2:06	45457	N
2:06	45678	N
2:07	45900	N
2:08	46131	N
2:09	46445	N
2:09	46786	N
2:10	47113	N
2:11	47439	N
2:12	47658	N
2:13	47961	N
2:13	48233	N
2:14	48509	N
2:15	48783	N
2:16	49107	N
2:17	49364	N
2:17	49581	N
2:18	49808	N
2:19	50130	N
2:20	50512	N
2:20	50741	N
2:21	51108	N
2:22	51364	N
2:23	51704	N
2:24	52018	N
2:25	52297	N
2:26	52588	N
2:27	52956	N
2:27	53277	N
2:28	53604	N
2:29	53843	N
2:30	54099	N
2:30	54303	N
2:31	54632	N
2:32	54911	N
2:33	55160	N
2:33	55427	N
2:34	55719	N
2:35	55930	N
2:36	56300	N
2:37	56579	N
2:38	56899	N
2:38	57153	N
2:39	57400	N
2:40	57700	N
2:40	57936	N
2:41	58180	N
2:42	58394	V
2:42	58665	N
2:43	58953	N
2:44	59249	N
2:45	59629	N
2:46	59864	N
2:47	60194	N
2:47	60462	N
2:48	60751	N
2:49	61018	N
2:50	61350	N
2:51	61680	N
2:51	61909	N
2:52	62207	N
2:53	62438	N
2:54	62730	N
2:55	63025	N
2:55	63190	F
2:56	63580	N
2:57	63905	N
2:58	64129	N
2:58	64383	N
2:59	64696	N
3:00	64991	N
3:01	65380	N
3:02	65656	N
3:03	65962	N
3:04	66315	N
3:04	66548	N
3:05	66834	N
3:06	67103	N
3:07	67420	N
3:08	67708	N
3:08	67891	N
3:09	68209	N
3:10	68446	N
3:10	68721	N
3:11	68970	N
3:12	69214	N
3:13	69486	N
3:13	69779	N
3:14	70067	N
3:15	70327	N
3:16	70589	N
3:16	70913	N
3:17	71249	N
3:18	71561	N
3:19	71817	N
3:20	72112	N
3:21	72457	N
3:22	72736	N
3:23	73109	N
3:23	73322	N
3:24	73635	N
3:25	73882	N
3:25	74122	N
3:26	74401	N
3:27	74649	N
3:28	74935	N
3:29	75274	N
3:29	75543	N
3:30	75808	N
3:31	76106	N
3:32	76404	N
3:33	76691	N
3:33	76925	N
3:34	77209	N
3:35	77486	N
3:35	77700	N
3:36	77957	N
3:37	78233	N
3:38	78483	N
3:38	78778	N
3:39	78980	V
3:40	79367	N
3:41	79614	N
3:41	79858	N
3:42	80187	N
3:43	80459	N
3:44	80725	N
3:45	81027	N
3:46	81380	N
3:47	81756	N
3:47	82020	N
3:48	82286	N
3:49	82514	N
3:50	82802	N
3:51	83161	N
3:51	83369	V
3:52	83697	N
3:53	83964	N
3:54	84280	N
3:54	84586	N
3:55	84854	N
3:56	85074	N
3:57	85354	N
3:57	85566	N
3:58	85890	N
3:59	86194	N
4:00	86468	N
4:00	86693	N
4:01	87012	N
4:02	87397	N
4:03	87668	N
4:04	87919	N
4:05	88221	N
4:05	88505	N
4:06	88709	N
4:07	89040	N
4:08	89311	N
4:08	89568	N
4:09	89873	N
4:10	90189	N
4:11	90581	N
4:12	90888	N
4:13	91230	N
4:14	91451	N
4:14	91648	N
4:15	91860	N
4:16	92296	N
4:17	92568	N
4:17	92777	N
4:18	93028	N
4:19	93329	N
4:20	93612	N
4:20	93855	N
4:21	94099	N
4:21	94305	N
4:22	94617	N
4:23	94963	N
4:24	95254	N
4:25	95533	N
4:26	95859	N
4:27	96141	N
4:27	96444	N
4:29	96848	N
4:29	97068	N
4:30	97353	N
4:31	97637	N
4:31	97916	N
4:32	98232	N
4:33	98439	N
4:34	98751	N
4:34	98949	N
4:35	99246	N
4:36	99536	N
4:37	99811	N
4:37	100029	V
4:38	100385	N
4:39	100593	N
4:40	100861	N
4:40	101090	N
4:41	101347	N
4:42	101570	N
4:43	101950	N
4:44	102318	N
4:44	102555	N
4:45	102835	N
4:46	103091	N
4:47	103412	N
4:48	103687	N
4:48	103907	N
4:49	104214	N
4:50	104430	N
4:50	104701	N
4:51	105013	N
4:52	105253	N
4:53	105523	N
4:53	105741	N
4:54	106028	N
4:55	106333	N
4:56	106601	N
4:57	106984	N
4:58	107318	N
4:58	107623	N
4:59	107916	N
5:00	108183	N
5:01	108411	N
5:02	108913	"
5:03	109192	+
5:03	109340	N
5:04	109694	N
5:05	110009	N
5:06	110251	A
5:07	110615	N
5:08	110944	N
5:09	111262	N
5:09	111571	N
5:10	111878	N
5:11	112185	N
5:12	112457	A
5:13	112827	N
5:14	113129	N
5:15	113443	N
5:15	113749	N
5:16	114059	N
5:17	114352	N
5:18	114684	N
5:19	114965	A
5:20	115301	N
5:21	115592	A
5:22	115924	N
5:22	116211	N
5:23	116543	N
5:24	116870	"
5:25	117120	N
5:26	117415	N
5:26	117599	+
5:26	117703	N
5:27	117998	N
5:28	118257	N
5:29	118533	N
5:29	118765	N
5:30	119063	N
5:31	119361	N
5:32	119657	N
5:33	119934	N
5:33	120168	N
5:34	120455	N
5:35	120730	N
5:36	120966	N
5:36	121277	N
5:37	121598	N
5:38	121850	N
5:39	122175	N
5:40	122485	N
5:41	122809	N
5:41	123010	V
5:42	123279	N
5:43	123624	N
5:44	123920	N
5:44	124143	N
5:45	124437	N
5:46	124743	N
5:47	124972	N
5:47	125273	N
5:48	125537	N
5:49	125858	N
5:50	126099	N
5:50	126341	N
5:51	126582	N
5:52	126808	N
5:52	127045	N
5:53	127351	N
5:54	127632	N
5:55	127844	V
5:55	128110	N
5:56	128378	N
5:57	128645	N
5:58	128884	N
5:58	129160	N
5:59	129498	N
6:00	129780	N
6:01	130067	N
6:02	130338	N
6:02	130625	N
6:03	130956	N
6:04	131229	N
6:05	131562	N
6:06	131858	N
6:06	132105	N
6:07	132334	N
6:08	132629	N
6:09	132996	N
6:10	133223	N
6:10	133549	N
6:11	133820	N
6:12	134074	N
6:13	134306	N
6:13	134517	V
6:14	134948	N
6:15	135171	N
6:16	135443	N
6:17	135750	N
6:17	135957	N
6:18	136233	N
6:19	136502	N
6:19	136735	N
6:20	137000	N
6:21	137304	N
6:22	137608	N
6:22	137834	V
6:23	138113	N
6:24	138376	N
6:25	138675	N
6:25	138938	N
6:26	139188	N
6:27	139466	N
6:28	139748	N
6:29	140050	N
6:29	140341	N
6:30	140673	N
6:31	140876	N
6:32	141180	N
6:33	141490	N
6:33	141747	N
6:34	142099	N
6:35	142334	N
6:36	142599	N
6:36	142835	N
6:37	143184	N
6:38	143438	N
6:39	143654	N
6:39	143947	N
6:40	144222	N
6:41	144423	V
6:42	144723	N
6:42	144947	N
6:43	145204	N
6:44	145442	N
6:44	145683	N
6:45	145927	N
6:46	146284	N
6:47	146596	N
6:47	146840	N
6:48	147074	N
6:49	147317	N
6:49	147587	N
6:50	147797	V
6:51	148068	N
6:52	148347	N
6:53	148808	N
6:54	149074	N
6:55	149403	N
6:55	149618	N
6:56	149872	N
6:57	150185	N
6:57	150472	N
6:58	150725	N
6:59	150970	N
7:00	151306	N
7:01	151576	N
7:01	151806	N
7:02	152060	N
7:03	152286	N
7:03	152554	N
7:04	152779	N
7:05	153051	N
7:05	153266	N
7:06	153576	N
7:07	153863	N
7:08	154092	N
7:08	154399	N
7:09	154668	N
7:10	154896	N
7:10	155100	V
7:11	155395	N
7:12	155656	N
7:13	155886	N
7:13	156160	N
7:14	156435	N
7:15	156713	N
7:16	157003	N
7:16	157289	N
7:17	157602	N
7:18	157902	N
7:19	158190	N
7:20	158487	N
7:21	158794	N
7:21	159033	N
7:22	159342	N
7:23	159640	N
7:24	159946	N
7:25	160229	N
7:25	160522	N
7:26	160770	N
7:27	161011	N
7:28	161287	N
7:28	161600	N
7:29	161850	N
7:30	162154	N
7:31	162447	N
7:32	162738	N
7:32	163058	N
7:33	163324	N
7:34	163632	N
7:35	164093	N
7:36	164338	N
7:37	164739	N
7:38	165064	N
7:39	165518	N
7:40	165806	N
7:41	166130	N
7:42	166375	N
7:42	166653	N
7:43	166966	N
7:44	167247	N
7:45	167560	N
7:46	167847	N
7:47	168152	N
7:47	168449	N
7:49	168857	N
7:49	169074	N
7:50	169319	N
7:51	169586	N
7:51	169875	N
7:52	170165	N
7:53	170448	N
7:54	170739	N
7:55	171037	N
7:55	171324	N
7:56	171583	N
7:57	171909	N
7:58	172213	N
7:59	172467	N
8:00	172857	N
8:01	173168	N
8:01	173413	N
8:02	173638	N
8:03	173994	N
8:04	174256	N
8:04	174579	N
8:05	174811	N
8:06	175059	N
8:07	175382	N
8:07	175669	N
8:08	175968	N
8:09	176261	N
8:10	176520	N
8:11	176797	N
8:12	177124	N
8:12	177332	V
8:13	177681	N
8:14	177980	N
8:14	178198	V
8:15	178476	N
8:16	178801	N
8:17	179105	N
8:18	179401	N
8:19	179663	N
8:19	179980	N
8:20	180238	N
8:21	180535	N
8:22	180837	N
8:23	181165	N
8:23	181436	N
8:24	181734	N
8:25	182017	N
8:26	182317	N
8:27	182548	N
8:27	182831	N
8:28	183203	N
8:30	183797	N
8:31	184093	N
8:32	184388	N
8:32	184676	N
8:33	184943	N
8:34	185218	N
8:35	185495	N
8:36	185798	N
8:37	186166	N
8:38	186508	N
8:38	186742	N
8:39	186958	N
8:40	187250	N
8:40	187533	N
8:41	187796	N
8:42	188058	N
8:43	188305	N
8:43	188558	N
8:44	188758	V
8:45	189016	N
8:45	189228	N
8:46	189470	N
8:47	189758	N
8:47	190024	N
8:48	190362	N
8:50	190820	N
8:50	191126	N
8:52	191562	N
8:53	191946	N
8:53	192238	N
8:54	192544	N
8:55	192741	N
8:56	193035	N
8:57	193324	N
8:57	193588	N
8:58	193797	V
8:59	194149	N
8:59	194347	N
9:00	194614	N
9:01	194904	N
9:02	195192	N
9:02	195395	V
9:03	195762	N
9:04	196064	N
9:05	196267	V
9:06	196610	N
9:06	196916	N
9:07	197228	N
9:08	197537	N
9:09	197826	N
9:10	198125	N
9:10	198344	N
9:11	198626	N
9:12	198909	N
9:13	199165	N
9:13	199400	N
9:14	199743	N
9:15	200089	N
9:16	200350	N
9:17	200636	N
9:18	200925	N
9:18	201139	N
9:19	201379	N
9:20	201706	N
9:21	202051	N
9:22	202374	N
9:22	202671	N
9:23	203000	N
9:24	203300	N
9:25	203585	N
9:26	203904	N
9:27	204189	N
9:27	204479	N
9:28	204793	N
9:29	205078	N
9:30	205357	N
9:31	205583	N
9:31	205812	N
9:32	206099	N
9:33	206428	N
9:34	206656	N
9:34	206933	N
9:35	207190	N
9:36	207422	N
9:36	207714	N
9:37	208016	N
9:38	208299	N
9:39	208560	N
9:39	208770	N
9:40	209022	N
9:41	209282	N
9:42	209563	N
9:42	209839	N
9:43	210118	N
9:44	210399	N
9:45	210621	N
9:46	210967	N
9:46	211248	N
9:47	211528	N
9:48	211794	N
9:49	212101	N
9:49	212379	N
9:50	212611	N
9:51	212947	N
9:52	213244	N
9:53	213531	N
9:53	213783	N
9:54	214042	N
9:55	214347	N
9:56	214685	N
9:57	214956	N
9:57	215248	N
9:58	215542	N
9:59	215803	N
10:00	216016	N
10:00	216253	N
10:01	216523	N
10:02	216805	N
10:02	217042	N
10:03	217264	N
10:04	217522	N
10:04	217798	N
10:05	218039	N
10:06	218453	N
10:07	218767	N
10:08	219126	N
10:09	219489	N
10:10	219693	V
10:11	220048	N
10:11	220250	N
10:12	220519	N
10:13	220814	N
10:14	221060	N
10:14	221274	V
10:15	221531	N
10:16	221805	N
10:16	222062	N
10:17	222341	N
10:18	222589	N
10:19	222850	N
10:19	223075	N
10:20	223364	N
10:21	223575	V
10:21	223856	N
10:22	224171	N
10:23	224409	V
10:24	224709	N
10:24	224978	N
10:25	225274	N
10:26	225482	N
10:27	225778	N
10:27	226065	N
10:28	226287	N
10:29	226583	N
10:30	226815	N
10:30	227079	N
10:31	227373	N
10:32	227656	N
10:33	227965	N
10:33	228230	N
10:34	228452	N
10:35	228727	N
10:36	228993	N
10:36	229268	N
10:37	229472	V
10:38	229739	N
10:38	230001	N
10:39	230241	N
10:40	230519	N
10:40	230725	N
10:41	231073	N
10:42	231285	N
10:43	231642	N
10:44	232004	N
10:45	232224	N
10:45	232464	N
10:46	232741	N
10:47	233036	N
10:48	233391	N
10:49	233770	N
10:50	234046	N
10:50	234264	N
10:51	234564	N
10:52	234919	N
10:53	235138	N
10:53	235423	N
10:55	235806	N
10:56	236175	N
10:56	236452	N
10:57	236756	N
10:58	237021	N
10:59	237251	N
10:59	237499	N
11:00	237763	N
11:01	237990	N
11:01	238249	N
11:02	238571	N
11:03	238852	N
11:04	239129	N
11:05	239491	N
11:06	239766	N
11:06	240070	N
11:07	240391	N
11:08	240704	N
11:09	240981	N
11:10	241295	N
11:10	241552	N
11:11	241835	N
11:12	242134	N
11:13	242453	N
11:14	242674	N
11:14	242951	N
11:15	243232	N
11:16	243500	N
11:17	243833	N
11:18	244114	N
11:18	244414	N
11:19	244667	N
11:20	244921	N
11:21	245166	N
11:21	245503	N
11:22	245821	N
11:23	246171	N
11:24	246439	N
11:25	246754	N
11:26	247151	N
11:27	247403	N
11:27	247621	N
11:28	247934	N
11:29	248209	N
11:30	248415	N
11:30	248742	N
11:31	249033	N
11:32	249378	N
11:33	249631	N
11:34	249905	N
11:35	250243	N
11:36	250768	N
11:37	251055	N
11:38	251327	N
11:39	251645	N
11:39	251895	N
11:40	252127	N
11:41	252437	N
11:41	252712	N
11:42	252936	N
11:43	253136	V
11:44	253511	N
11:44	253724	N
11:45	254083	N
11:46	254292	N
11:47	254521	N
11:47	254779	N
11:48	255043	N
11:49	255271	N
11:49	255559	N
11:50	255815	N
11:51	256109	N
11:52	256391	N
11:52	256639	N
11:53	256874	N
11:54	257325	N
11:55	257607	N
11:56	257829	N
11:57	258130	N
11:57	258401	N
11:58	258680	N
11:59	258913	N
11:59	259196	N
12:00	259404	N
12:01	259732	N
12:02	259975	N
12:02	260264	N
12:03	260570	N
12:04	260790	N
12:05	261097	N
12:05	261325	N
12:06	261664	N
12:07	261991	N
12:08	262306	N
12:09	262571	N
12:10	262922	N
12:11	263240	N
12:11	263448	N
12:12	263787	N
12:13	264009	N
12:14	264322	N
12:14	264527	N
12:15	264843	N
12:16	265158	N
12:17	265463	N
12:17	265665	N
12:18	265977	N
12:19	266209	N
12:20	266545	N
12:21	267015	N
12:22	267240	N
12:23	267516	N
12:23	267753	N
12:24	268025	N
12:25	268234	N
12:25	268450	N
12:26	268788	N
12:27	269082	N
12:28	269391	N
12:29	269672	N
12:29	269899	N
12:30	270155	N
12:31	270469	N
12:32	270774	N
12:32	270973	N
12:33	271323	N
12:34	271587	N
12:35	271827	N
12:35	272117	N
12:36	272336	N
12:37	272641	N
12:38	272940	N
12:38	273213	N
12:39	273478	N
12:40	273721	N
12:40	273959	N
12:41	274293	N
12:42	274625	N
12:43	274883	N
12:44	275189	N
12:45	275512	N
12:46	275841	N
12:46	276106	N
12:47	276350	N
12:48	276710	N
12:49	276981	N
12:50	277317	N
12:50	277514	N
12:51	277855	N
12:52	278060	N
12:53	278339	N
12:53	278601	N
12:54	278794	N
12:55	279044	N
12:55	279266	N
12:56	279578	N
12:57	279846	N
12:58	280178	N
12:59	280478	N
13:00	280871	N
13:00	281155	N
13:01	281416	N
13:02	281670	N
13:03	282053	N
13:04	282339	N
13:05	282654	N
13:05	282934	N
13:06	283259	N
13:07	283601	N
13:08	283863	N
13:09	284060	N
13:09	284381	N
13:10	284588	N
13:11	284903	N
13:12	285195	N
13:12	285415	N
13:13	285614	N
13:14	285880	N
13:14	286150	N
13:15	286438	N
13:16	286657	N
13:17	286943	N
13:17	287159	N
13:18	287622	N
13:19	287943	N
13:20	288235	N
13:21	288475	N
13:22	288768	N
13:23	289082	N
13:23	289354	N
13:24	289684	N
13:25	289973	N
13:26	290256	N
13:26	290519	N
13:27	290748	N
13:28	291023	N
13:29	291326	N
13:29	291555	N
13:30	291866	N
13:31	292174	N
13:32	292511	N
13:33	292841	N
13:34	293200	N
13:35	293461	N
13:35	293697	N
13:36	293943	N
13:37	294226	N
13:38	294487	N
13:38	294805	N
13:39	295133	N
13:40	295350	N
13:41	295675	N
13:42	295942	N
13:42	296260	N
13:43	296522	N
13:44	296769	N
13:45	297070	N
13:45	297357	N
13:46	297594	N
13:47	297822	N
13:48	298086	N
13:49	298603	N
13:50	298819	N
13:51	299196	N
13:51	299393	N
13:52	299764	N
13:53	300081	N
13:54	300575	"
13:55	300817	+
13:56	301003	N
13:57	301335	N
13:57	301582	A
13:58	301941	N
13:58	302003	x
14:00	302497	N
14:01	302796	N
14:02	303145	N
14:02	303429	A
14:03	303764	N
14:03	303821	x
14:05	304383	N
14:06	304683	N
14:07	304990	N
14:08	305287	N
14:08	305566	N
14:08	305606	x
14:10	306102	N
14:11	306421	N
14:12	306747	N
14:12	307024	N
14:13	307174	+
14:13	307323	N
14:14	307566	N
14:15	307838	N
14:15	308104	N
14:16	308357	N
14:17	308582	N
14:17	308852	N
14:18	309153	N
14:19	309383	N
14:20	309665	N
14:21	309962	N
14:21	310270	N
14:22	310601	N
14:23	310933	N
14:24	311228	N
14:25	311451	N
14:25	311715	N
14:26	311942	N
14:27	312214	N
14:28	312512	N
14:28	312710	N
14:29	312958	N
14:30	313230	N
14:30	313437	V
14:31	313746	N
14:32	314155	N
14:33	314372	N
14:33	314623	N
14:34	314851	N
14:35	315164	N
14:35	315359	N
14:36	315639	N
14:37	315918	N
14:38	316139	N
14:38	316389	N
14:39	316635	N
14:40	316871	N
14:41	317192	N
14:41	317387	N
14:42	317705	N
14:43	317982	N
14:44	318262	N
14:44	318523	N
14:45	318777	N
14:46	319093	N
14:47	319343	N
14:47	319636	N
14:48	319932	N
14:49	320201	N
14:50	320458	N
14:50	320689	N
14:51	320949	N
14:52	321259	N
14:53	321702	+
14:53	321834	N
14:54	322163	N
14:55	322204	x
14:56	322728	N
14:57	323048	N
14:57	323098	x
14:58	323606	N
14:59	323907	N
14:59	323968	x
15:01	324470	N
15:02	324761	N
15:02	324800	x
15:03	325305	N
15:04	325598	N
15:04	325647	x
15:05	326129	N
15:06	326452	N
15:07	326615	+
15:07	326740	N
15:08	327011	N
15:09	327282	N
15:09	327536	N
15:10	327816	N
15:11	328030	N
15:12	328327	N
15:12	328560	V
15:13	328877	N
15:14	329148	N
15:14	329349	V
15:15	329626	N
15:16	329889	N
15:17	330125	N
15:17	330451	N
15:18	330768	N
15:19	331189	+
15:20	331327	N
15:21	331642	N
15:21	331684	x
15:22	332188	N
15:23	332485	N
15:23	332528	x
15:25	333034	N
15:25	333323	N
15:26	333382	x
15:27	333883	N
15:28	334168	N
15:28	334210	x
15:29	334701	N
15:30	335001	N
15:30	335042	x
15:32	335542	N
15:32	335835	N
15:33	335882	x
15:34	336383	N
15:35	336686	N
15:35	336733	x
15:36	337219	N
15:37	337521	N
15:37	337562	x
15:39	338050	N
15:39	338339	N
15:39	338379	x
15:41	338884	N
15:42	339171	N
15:42	339349	+
15:42	339465	N
15:43	339731	N
15:44	340199	+
15:45	340327	N
15:46	340638	N
15:46	340682	x
15:47	341201	N
15:48	341500	N
15:48	341542	x
15:50	342037	N
15:50	342332	N
15:51	342379	x
15:52	342867	N
15:53	343156	N
15:53	343200	x
15:54	343686	N
15:55	343985	N
15:55	344038	x
15:56	344518	N
15:57	344813	N
15:57	344865	x
15:59	345354	N
16:00	345632	A
16:01	346031	N
16:01	346091	x
16:02	346585	N
16:03	346882	N
16:03	346931	x
16:05	347425	N
16:05	347723	N
16:06	347770	x
16:07	348247	N
16:07	348303	x
16:08	348808	N
16:09	349097	N
16:09	349145	x
16:11	349620	N
16:12	349920	N
16:12	349974	x
16:13	350452	N
16:14	350743	N
16:14	350792	x
16:15	351283	N
16:15	351346	x
16:17	351832	N
16:18	352125	N
16:18	352173	x
16:19	352660	N
16:20	352948	N
16:20	352994	x
16:21	353489	N
16:22	353544	x
16:23	354023	N
16:24	354328	N
16:24	354377	x
16:25	354853	N
16:26	355155	N
16:26	355212	x
16:28	355684	N
16:28	355979	N
16:28	356033	x
16:30	356495	N
16:31	356786	N
16:31	356833	x
16:32	357305	N
16:33	357604	N
16:33	357658	x
16:34	358138	N
16:35	358441	N
16:35	358493	x
16:37	358961	N
16:37	359267	N
16:38	359322	x
16:39	359813	N
16:39	359873	x
16:40	360341	N
16:41	360403	x
16:42	360882	N
16:42	360945	x
16:43	361404	N
16:44	361696	N
16:44	361749	x
16:46	362216	N
16:46	362511	N
16:47	362568	x
16:48	363037	N
16:48	363113	x
16:49	363591	N
16:50	363875	N
16:50	363927	x
16:52	364400	N
16:52	364464	x
16:53	364948	N
16:53	365017	x
16:54	365144	V
16:55	365497	N
16:55	365563	x
16:56	366042	N
16:57	366324	N
16:57	366386	x
16:59	366847	N
16:59	367141	N
16:59	367197	x
17:01	367661	N
17:02	367957	N
17:02	368020	x
17:03	368482	N
17:03	368545	x
17:05	369030	N
17:05	369098	x
17:06	369570	N
17:06	369642	x
17:08	370108	N
17:08	370176	x
17:08	370305	V
17:09	370655	N
17:09	370716	x
17:11	371194	N
17:11	371483	N
17:12	371536	x
17:13	372017	N
17:13	372093	x
17:14	372552	N
17:15	372621	x
17:16	373105	N
17:17	373391	N
17:17	373446	x
17:18	373905	N
17:19	374184	N
17:20	374482	N
17:21	374772	N
17:21	375062	N
17:22	375365	N
17:23	375673	N
17:23	375729	x
17:25	376229	N
17:25	376303	x
17:26	376788	N
17:26	376858	x
17:28	377335	N
17:28	377398	x
17:28	377625	+
17:29	377727	N
17:29	377976	N
17:30	378170	N
17:31	378436	N
17:31	378626	N
17:32	378842	N
17:33	379110	N
17:33	379357	N
17:34	379608	N
17:35	379894	N
17:35	380126	N
17:36	380404	N
17:37	380641	N
17:38	380881	N
17:38	381194	+
17:39	381333	N
17:40	381665	N
17:41	381974	N
17:41	382287	N
17:42	382594	N
17:43	382907	N
17:44	383215	N
17:45	383517	N
17:45	383575	x
17:46	384073	N
17:47	384380	N
17:48	384683	N
17:49	384986	N
17:50	385297	N
17:51	385601	N
17:51	385906	N
17:52	386212	N
17:53	386521	N
17:54	386835	N
17:54	386884	x
17:56	387370	N
17:56	387439	x
17:57	387933	N
17:57	388001	x
17:59	388474	N
17:59	388779	N
18:00	389079	N
18:01	389391	N
18:01	389444	x
18:03	389912	N
18:03	390229	N
18:04	390535	N
18:05	390740	V
18:06	391002	N
18:07	391376	N
18:07	391444	x
18:08	391937	N
18:08	392010	x
18:10	392481	N
18:10	392550	x
18:11	393041	N
18:11	393115	x
18:13	393579	N
18:13	393645	x
18:14	394119	N
18:15	394418	N
18:16	394705	N
18:16	394762	x
18:17	395265	N
18:18	395557	N
18:18	395613	x
18:20	396073	N
18:21	396376	N
18:21	396434	x
18:22	396901	N
18:23	397200	N
18:24	397508	N
18:24	397575	x
18:25	398041	N
18:26	398340	N
18:26	398408	x
18:27	398870	N
18:28	399177	N
18:29	399477	N
18:30	399768	N
18:30	399829	x
18:31	400304	N
18:32	400376	x
18:33	400847	N
18:33	400914	x
18:34	401391	N
18:35	401463	x
18:35	401723	+
18:36	401888	N
18:37	402188	N
18:38	402524	N
18:38	402785	N
18:39	403013	N
18:40	403239	N
18:40	403488	N
18:41	403728	N
18:42	403935	N
18:42	404230	N
18:43	404500	N
18:44	404856	N
18:45	405212	N
18:46	405510	N
18:47	405746	N
18:47	405990	N
18:48	406197	V
18:49	406460	N
18:49	406671	N
18:50	406914	N
18:51	407231	N
18:51	407488	N
18:52	407715	N
18:53	408009	N
18:53	408211	N
18:54	408504	N
18:55	408750	N
18:56	409003	N
18:56	409308	N
18:57	409594	N
18:58	409888	N
18:59	410133	N
18:59	410370	N
19:00	410682	N
19:01	411031	N
19:02	411353	N
19:03	411661	N
19:04	411863	N
19:05	412214	N
19:05	412420	N
19:06	412748	N
19:07	413166	+
19:08	413297	N
19:08	413616	N
19:09	413914	N
19:10	414219	N
19:11	414514	N
19:12	414833	N
19:13	415150	N
19:14	415461	N
19:15	415814	N
19:15	416113	N
19:16	416430	N
19:17	416754	N
19:18	417069	N
19:19	417389	N
19:19	417447	x
19:21	417963	N
19:21	418031	x
19:22	418522	N
19:23	418839	N
19:24	419148	N
19:25	419449	N
19:26	419760	N
19:26	420069	N
19:27	420379	N
19:27	420433	x
19:29	420956	N
19:29	421021	x
19:30	421521	N
19:31	421584	x
19:32	422069	N
19:32	422136	x
19:33	422623	N
19:34	422688	x
19:35	423160	N
19:36	423464	N
19:37	423771	N
19:37	424064	N
19:38	424125	x
19:39	424597	N
19:40	424909	N
19:41	425207	N
19:41	425513	N
19:42	425815	N
19:43	426125	N
19:44	426436	N
19:44	426494	x
19:46	426984	N
19:46	427050	x
19:47	427545	N
19:47	427618	x
19:49	428091	N
19:49	428159	x
19:50	428648	N
19:50	428718	x
19:51	428839	V
19:52	429190	N
19:52	429261	x
19:53	429737	N
19:54	430031	N
19:55	430319	N
19:56	430615	N
19:56	430918	N
19:57	431213	N
19:58	431516	N
19:59	431829	N
20:00	432150	N
20:01	432471	N
20:01	432534	x
20:02	433042	N
20:03	433120	x
20:04	433617	N
20:05	433939	N
20:06	434245	N
20:07	434556	N
20:07	434611	x
20:08	435082	N
20:09	435389	N
20:10	435696	N
20:11	436008	N
20:11	436066	x
20:12	436542	N
20:12	436616	x
20:14	437109	N
20:14	437182	x
20:15	437652	N
20:15	437726	x
20:15	437749	+
20:16	437846	V
20:17	438207	N
20:17	438408	V
20:18	438753	N
20:19	438943	V
20:19	439101	+
20:19	439172	N
20:20	439401	N
20:21	439826	N
20:22	440118	N
20:23	440350	N
20:23	440583	N
20:24	440862	N
20:25	441150	N
20:26	441426	N
20:26	441644	N
20:27	441939	N
20:28	442256	N
20:29	442544	N
20:30	442808	N
20:30	443036	N
20:31	443350	N
20:32	443665	N
20:33	443940	N
20:33	444204	N
20:34	444462	N
20:35	444768	N
20:36	445071	N
20:37	445372	N
20:38	445708	N
20:38	445941	N
20:39	446206	N
20:40	446432	N
20:40	446698	N
20:41	446956	N
20:42	447261	N
20:43	447517	N
20:44	447869	N
20:44	448179	N
20:45	448406	N
20:46	448678	N
20:47	448996	N
20:48	449310	N
20:48	449635	N
20:49	449918	N
20:50	450131	N
20:51	450433	N
20:51	450709	N
20:53	451152	N
20:54	451498	N
20:54	451772	N
20:55	452010	N
20:56	452238	N
20:56	452500	N
20:57	452701	N
20:58	453070	N
20:59	453385	N
21:00	453651	N
21:01	453990	N
21:02	454515	N
21:03	454802	N
21:03	454993	N
21:04	455232	N
21:05	455476	N
21:05	455691	N
21:06	455975	N
21:07	456311	N
21:08	456538	N
21:08	456755	N
21:09	457084	N
21:10	457364	N
21:11	457636	N
21:12	457951	N
21:12	458190	N
21:13	458465	N
21:14	458777	N
21:15	459050	N
21:15	459299	N
21:16	459588	N
21:17	459909	N
21:18	460117	N
21:18	460412	N
21:19	460697	N
21:20	460929	N
21:21	461230	N
21:21	461512	N
21:22	461765	N
21:23	462069	N
21:24	462370	N
21:24	462596	N
21:25	462867	N
21:26	463105	N
21:27	463421	N
21:27	463678	N
21:28	463902	N
21:29	464184	N
21:30	464433	N
21:30	464755	N
21:31	465087	N
21:32	465448	N
21:33	465831	N
21:34	466131	N
21:35	466393	N
21:36	466690	N
21:37	466971	N
21:37	467189	N
21:38	467453	N
21:39	467752	N
21:40	468031	N
21:40	468345	N
21:41	468562	N
21:42	468849	N
21:43	469147	N
21:44	469458	N
21:45	469845	N
21:46	470170	N
21:46	470448	N
21:47	470742	N
21:48	470963	N
21:49	471321	N
21:50	471667	N
21:51	471985	N
21:51	472258	N
21:52	472586	N
21:53	472838	N
21:54	473093	N
21:54	473324	N
21:55	473543	N
21:56	473856	N
21:56	474117	N
21:57	474334	N
21:58	474701	N
21:59	474975	N
22:00	475207	N
22:00	475505	N
22:01	475781	N
22:02	475982	N
22:03	476297	N
22:03	476585	N
22:04	476875	N
22:05	477090	N
22:06	477457	N
22:07	477774	N
22:08	478097	N
22:08	478295	V
22:09	478575	N
22:10	478877	N
22:11	479189	N
22:11	479458	N
22:12	479687	N
22:13	480004	N
22:14	480583	"
22:16	480987	+
22:16	481112	N
22:17	481438	N
22:18	481718	N
22:18	482011	N
22:19	482061	x
22:20	482551	N
22:21	482838	N
22:21	482884	x
22:22	483371	N
22:23	483664	N
22:23	483713	x
22:25	484211	N
22:25	484504	N
22:25	484552	x
22:27	484993	N
22:27	485045	x
22:28	485404	N
22:28	485461	x
22:29	485978	N
22:30	486277	N
22:30	486326	x
22:32	486816	N
22:33	487108	N
22:33	487163	x
22:34	487659	N
22:35	487948	N
22:35	487997	x
22:36	488494	N
22:37	488791	N
22:37	488840	x
22:39	489326	N
22:40	489619	N
22:40	489673	x
22:41	490168	N
22:42	490457	N
22:42	490506	x
22:43	490988	N
22:44	491288	N
22:44	491343	x
22:46	491823	N
22:46	492116	N
22:47	492163	x
22:48	492658	N
22:48	492722	x
22:50	493217	N
22:50	493520	N
22:51	493566	x
22:52	494034	N
22:53	494335	N
22:53	494385	x
22:54	494874	N
22:55	495164	N
22:55	495221	x
22:56	495697	N
22:57	496000	N
22:57	496051	x
22:59	496516	N
22:59	496588	x
23:00	497068	N
23:01	497278	V
23:02	497631	N
23:02	497827	V
23:03	498187	N
23:04	498254	x
23:05	498755	N
23:05	498824	x
23:06	499307	N
23:07	499376	x
23:08	499869	N
23:08	499936	x
23:10	500417	N
23:10	500483	x
23:10	500516	+
23:10	500616	V
23:11	500976	N
23:11	501037	x
23:12	501161	V
23:13	501525	N
23:13	501718	V
23:14	501948	+
23:14	502020	N
23:15	502249	N
23:15	502484	N
23:16	502779	N
23:17	502987	N
23:18	503298	N
23:18	503583	N
23:19	503820	V
23:20	504109	N
23:21	504426	N
23:22	504765	N
23:22	505060	N
23:23	505346	N
23:24	505759	N
23:25	506037	N
23:26	506283	N
23:26	506517	N
23:27	506742	V
23:28	507022	N
23:29	507317	N
23:30	507660	N
23:30	507924	N
23:31	508180	N
23:32	508486	N
23:33	508803	N
23:34	509073	N
23:34	509309	N
23:35	509612	N
23:36	509887	N
23:36	510116	N
23:37	510355	N
23:38	510610	N
23:39	510893	N
23:40	511345	N
23:41	511640	N
23:42	511949	N
23:42	512159	N
23:43	512446	N
23:44	512737	N
23:44	512989	N
23:45	513241	N
23:46	513516	N
23:47	513808	N
23:48	514138	N
23:49	514469	N
23:49	514707	N
23:50	514990	N
23:51	515326	N
23:52	515651	N
23:53	515909	N
23:53	516106	N
23:54	516462	N
23:55	516739	N
23:55	516935	N
23:56	517262	N
23:57	517604	N
23:58	517916	N
23:59	518274	N
24:00	518600	N
24:01	518921	N
24:02	519182	N
24:02	519422	N
24:03	519726	N
24:04	520078	N
24:05	520417	N
24:06	520715	N
24:07	520999	N
24:07	521241	N
24:08	521441	N
24:09	521787	N
24:10	522107	N
24:11	522368	N
24:11	522569	N
24:12	522891	N
24:13	523176	N
24:14	523459	N
24:14	523750	N
24:15	523956	N
24:16	524196	V
24:16	524510	N
24:17	524755	N
24:18	525013	N
24:19	525281	N
24:20	525606	N
24:20	525824	N
24:21	526036	N
24:22	526360	N
24:23	526690	N
24:23	527011	N
24:24	527396	N
24:25	527677	N
24:26	527919	N
24:27	528185	N
24:28	528502	N
24:28	528802	N
24:29	529046	N
24:30	529299	N
24:31	529638	N
24:32	529963	N
24:32	530224	N
24:33	530434	N
24:34	530717	N
24:34	530928	N
24:35	531223	N
24:36	531485	N
24:36	531718	N
24:37	531922	V
24:38	532181	N
24:38	532430	N
24:39	532765	N
24:40	532977	N
24:41	533254	N
24:41	533472	N
24:42	533758	N
24:43	534097	N
24:44	534382	N
24:45	534668	N
24:45	534928	N
24:46	535131	N
24:47	535427	N
24:47	535608	V
24:48	535978	N
24:49	536248	N
24:50	536500	N
24:51	536792	N
24:51	537090	N
24:52	537453	N
24:53	537734	N
24:54	537972	N
24:55	538273	N
24:56	538595	N
24:56	538829	N
24:57	539156	N
24:58	539449	N
24:59	539725	N
24:59	539969	N
25:00	540279	N
25:01	540586	N
25:02	540888	N
25:03	541110	N
25:03	541434	N
25:04	541736	N
25:05	542053	N
25:06	542416	N
25:07	542720	N
25:08	543017	N
25:09	543273	N
25:10	543612	N
25:10	543955	N
25:11	544210	N
25:12	544483	N
25:13	544693	N
25:14	545088	N
25:15	545446	N
25:16	545807	N
25:17	546123	N
25:17	546381	N
25:18	546572	N
25:18	546776	N
25:19	547054	N
25:20	547353	N
25:20	547559	N
25:21	547880	N
25:22	548209	N
25:23	548524	N
25:24	548821	N
25:25	549175	N
25:26	549516	N
25:27	549774	N
25:27	550035	N
25:28	550309	N
25:29	550533	N
25:30	550960	N
25:31	551196	N
25:31	551410	N
25:32	551734	N
25:33	552051	N
25:34	552405	N
25:35	552677	N
25:36	553045	N
25:36	553248	N
25:37	553660	N
25:38	553955	N
25:39	554236	N
25:40	554452	N
25:40	554677	N
25:41	555013	N
25:42	555208	N
25:42	555477	N
25:43	555764	N
25:44	556089	N
25:45	556522	N
25:46	556852	N
25:47	557127	N
25:48	557371	N
25:48	557625	N
25:49	557824	N
25:50	558166	N
25:51	558363	N
25:51	558674	N
25:52	558941	N
25:53	559195	N
25:54	559448	N
25:54	559709	N
25:55	560050	N
25:56	560358	N
25:57	560612	N
25:58	560948	N
25:59	561270	N
25:59	561511	N
26:00	561828	N
26:01	562142	N
26:02	562371	N
26:02	562625	N
26:03	562908	N
26:04	563311	N
26:05	563613	N
26:06	563947	N
26:07	564283	N
26:08	564608	N
26:09	564905	N
26:09	565124	N
26:10	565327	N
26:10	565546	N
26:11	565803	N
26:12	566067	N
26:13	566380	N
26:14	566778	N
26:15	567110	N
26:16	567391	N
26:16	567635	N
26:17	567911	N
26:18	568186	N
26:19	568533	N
26:20	568860	N
26:21	569213	N
26:21	569452	N
26:22	569691	N
26:23	569990	N
26:24	570250	N
26:24	570554	N
26:25	570887	N
26:26	571134	N
26:27	571409	N
26:27	571649	N
26:28	571931	N
26:29	572247	N
26:30	572563	N
26:31	572877	N
26:32	573207	N
26:32	573456	N
26:33	573731	N
26:34	573964	N
26:35	574260	N
26:35	574507	N
26:36	574897	N
26:37	575253	N
26:38	575509	N
26:39	575813	N
26:40	576113	N
26:41	576372	N
26:41	576589	V
26:42	576864	N
26:43	577295	N
26:44	577621	N
26:45	577856	N
26:45	578154	N
26:47	578530	N
26:47	578805	N
26:48	579126	N
26:49	579392	N
26:50	579652	N
26:50	579904	N
26:51	580196	N
26:52	580531	N
26:53	580801	N
26:54	581116	N
26:54	581373	N
26:55	581732	N
26:56	581950	N
26:57	582317	N
26:58	582530	N
26:58	582807	N
26:59	583080	N
27:00	583392	N
27:01	583589	V
27:01	583914	N
27:02	584227	N
27:03	584456	N
27:04	584711	N
27:04	584976	N
27:05	585199	N
27:06	585458	N
27:06	585682	N
27:07	585992	N
27:08	586308	N
27:09	586638	N
27:10	587010	N
27:11	587231	N
27:11	587476	N
27:12	587707	N
27:13	588097	N
27:14	588309	N
27:15	588628	N
27:15	588904	N
27:16	589144	N
27:17	589466	N
27:18	589743	N
27:18	589965	N
27:19	590253	N
27:20	590546	N
27:21	590850	N
27:21	591114	N
27:22	591391	N
27:23	591607	V
27:24	591936	N
27:25	592296	N
27:26	592633	N
27:27	592930	N
27:27	593233	N
27:28	593529	N
27:29	593887	N
27:30	594183	N
27:31	594444	N
27:32	594737	N
27:32	595042	N
27:33	595393	N
27:34	595702	N
27:35	595954	N
27:36	596251	N
27:37	596597	N
27:38	596913	N
27:38	597169	V
27:39	597533	N
27:40	597804	N
27:41	598062	N
27:41	598279	N
27:42	598537	N
27:43	598818	N
27:43	599039	N
27:44	599314	N
27:45	599569	N
27:46	599853	N
27:46	600065	V
27:47	600343	N
27:48	600760	N
27:49	601098	N
27:50	601399	N
27:51	601689	N
27:52	601958	N
27:53	602288	N
27:53	602553	N
27:54	602827	N
27:55	603115	N
27:55	603323	N
27:56	603660	N
27:57	603975	N
27:58	604254	N
27:59	604592	N
28:00	604861	N
28:01	605285	N
28:02	605565	N
28:02	605861	N
28:03	606168	N
28:04	606387	N
28:05	606665	N
28:05	606926	N
28:07	607401	N
28:08	607787	N
28:09	608094	N
28:10	608421	N
28:10	608639	N
28:11	608955	N
28:12	609390	N
28:13	609700	N
28:14	609963	N
28:15	610246	N
28:16	610577	N
28:16	610865	N
28:17	611199	N
28:18	611457	N
28:19	611760	N
28:20	612089	N
28:21	612368	N
28:22	612749	N
28:22	612966	N
28:23	613225	N
28:24	613501	N
28:25	613803	N
28:25	614093	N
28:26	614383	N
28:27	614681	N
28:28	615051	N
28:29	615364	N
28:30	615614	N
28:30	615825	N
28:31	616099	N
28:32	616383	N
28:33	616683	N
28:33	616990	N
28:34	617273	N
28:35	617541	N
28:36	617794	N
28:37	618236	N
28:38	618486	N
28:38	618725	N
28:39	619026	N
28:40	619322	N
28:41	619621	N
28:41	619891	N
28:42	620238	N
28:43	620546	N
28:44	620762	V
28:45	621070	N
28:45	621288	N
28:46	621560	N
28:47	621773	N
28:47	622026	N
28:48	622289	N
28:49	622512	N
28:49	622796	N
28:50	623047	N
28:51	623324	N
28:52	623647	N
28:53	623918	N
28:53	624215	N
28:54	624505	N
28:55	624815	N
28:56	625107	N
28:57	625388	N
28:58	625706	N
28:58	625917	V
28:59	626223	N
29:00	626515	N
29:01	626805	N
29:01	627109	N
29:02	627331	N
29:03	627658	N
29:04	627990	N
29:04	628197	V
29:06	628576	N
29:06	628772	N
29:07	629046	N
29:08	629326	N
29:08	629603	N
29:09	629832	N
29:10	630048	N
29:10	630350	N
29:11	630665	N
29:12	630961	N
29:13	631249	N
29:14	631546	N
29:15	631843	N
29:15	632147	N
29:16	632436	N
29:17	632728	N
29:18	633032	N
29:19	633323	N
29:20	633614	N
29:20	633909	N
29:21	634197	N
29:22	634427	N
29:23	634713	N
29:23	634991	N
29:25	635412	N
29:25	635714	N
29:26	635932	N
29:27	636195	N
29:27	636465	N
29:28	636786	N
29:29	637066	N
29:30	637503	N
29:31	637807	N
29:32	638108	N
29:33	638363	N
29:34	638751	N
29:34	638990	N
29:35	639211	N
29:36	639578	N
29:37	639805	N
29:38	640170	N
29:39	640467	N
29:39	640789	N
29:40	641082	N
29:41	641297	N
29:42	641668	N
29:43	641976	N
29:44	642311	N
29:45	642605	N
29:45	642844	N
29:46	643200	N
29:47	643425	N
29:47	643651	N
29:48	643983	N
29:49	644338	N
29:50	644647	N
29:51	644930	N
29:52	645227	N
29:52	645446	N
29:53	645759	N
29:54	646065	N
29:55	646270	V
29:56	646560	N
29:56	646833	N
29:57	647143	N
29:58	647438	N
29:59	647880	N
30:00	648128	N
30:01	648397	N
30:01	648690	N
30:02	648836	V
30:03	649174	N
30:04	649448	N
30:04	649737	N
