0:00	220	N
0:01	442	N
0:01	603	V
0:02	924	N
0:03	1241	N
0:03	1430	V
0:05	1804	N
0:05	2064	N
0:06	2356	N
0:07	2520	V
0:07	2825	N
0:08	3064	N
0:09	3525	N
0:10	3798	N
0:11	4128	N
0:12	4489	N
0:13	4838	N
0:14	5092	N
0:14	5355	N
0:15	5537	V
0:16	5848	N
0:16	6099	N
0:17	6351	N
0:18	6512	V
0:19	6879	N
0:20	7215	N
0:20	7512	N
0:21	7689	V
0:22	8071	N
0:23	8301	N
0:23	8546	N
0:24	8816	N
0:25	9246	N
0:26	9514	N
0:27	9785	N
0:28	10103	N
0:28	10374	N
0:29	10641	N
0:30	10816	V
0:30	11125	N
0:31	11383	N
0:32	11679	N
0:32	11852	V
0:33	12147	N
0:34	12390	N
0:35	12742	N
0:36	13026	N
0:36	13205	V
0:37	13496	N
0:38	13737	N
0:38	13998	N
0:39	14244	N
0:40	14542	N
0:41	14802	N
0:41	14967	V
0:42	15334	N
0:43	15566	N
0:43	15834	N
0:44	16085	N
0:45	16538	N
0:47	16926	N
0:47	17197	N
0:48	17428	N
0:49	17682	N
0:49	17910	N
0:50	18205	N
0:51	18464	N
0:52	18758	N
0:52	19071	N
0:53	19266	V
0:54	19638	N
0:55	19868	N
0:55	20147	N
0:56	20294	V
0:57	20652	N
0:58	20911	N
0:59	21242	N
0:59	21489	N
1:00	21756	N
1:01	21979	N
1:01	22236	N
1:02	22399	V
1:03	22730	N
1:03	22992	N
1:04	23327	N
1:06	23765	N
1:06	24104	N
1:07	24360	N
1:08	24601	N
1:09	24879	N
1:09	25197	N
1:10	25381	V
1:11	25700	N
1:12	25948	N
1:12	26181	N
1:13	26342	V
1:13	26620	N
1:14	26868	N
1:15	27145	N
1:15	27311	V
1:16	27691	N
1:17	27957	N
1:18	28185	N
1:18	28413	N
1:19	28567	V
1:20	29058	N
1:21	29323	N
1:22	29630	N
1:23	29948	N
1:23	30121	V
1:24	30427	N
1:25	30660	N
1:25	30878	N
1:26	31123	N
1:27	31547	N
1:28	31793	N
1:29	32160	N
1:30	32435	N
1:30	32613	V
1:31	32991	N
1:32	33260	N
1:32	33431	V
1:33	33748	N
1:34	34011	N
1:35	34277	N
1:35	34519	N
1:36	34677	V
1:37	34968	N
1:37	35227	N
1:39	35670	N
1:39	35929	N
1:40	36200	N
1:41	36391	V
1:42	36768	N
1:42	37000	N
1:43	37242	N
1:43	37403	V
1:45	37849	N
1:45	38099	N
1:46	38422	N
1:47	38691	N
1:48	38941	N
1:49	39244	N
1:49	39559	N
1:50	39718	V
1:51	40016	N
1:51	40263	N
1:52	40506	N
1:53	40683	V
1:53	41018	N
1:54	41342	N
1:55	41566	N
1:56	41780	N
1:56	41951	V
1:57	42333	N
1:58	42653	N
1:58	42827	V
1:59	43127	N
2:00	43363	N
2:01	43589	N
2:01	43806	N
2:02	44042	N
2:03	44336	N
2:03	44509	V
2:04	44840	N
2:05	45112	N
2:05	45295	V
2:06	45617	N
2:07	45863	N
2:08	46152	N
2:08	46315	V
2:09	46634	N
2:10	46905	N
2:10	47146	N
2:11	47396	N
2:12	47560	V
2:12	47866	N
2:13	48132	N
2:14	48304	V
2:14	48568	N
2:15	48847	N
2:16	49155	N
2:17	49335	V
2:17	49625	N
2:18	49847	N
2:19	50067	N
2:19	50228	V
2:20	50566	N
2:21	51056	N
2:22	51377	N
2:23	51545	V
2:24	51842	N
2:24	52133	N
2:25	52302	V
2:26	52598	N
2:26	52870	N
2:27	53112	N
2:28	53458	N
2:29	53729	N
2:29	53981	N
2:30	54253	N
2:31	54619	N
2:32	54866	N
2:33	55103	N
2:33	55277	V
2:34	55621	N
2:35	55868	N
2:35	56143	N
2:36	56356	N
2:37	56648	N
2:38	56893	N
2:39	57350	N
2:40	57610	N
2:40	57841	N
2:41	58019	V
2:42	58342	N
2:42	58571	N
2:43	58809	N
2:43	58969	V
2:44	59261	N
2:45	59495	N
2:46	59775	N
2:46	60037	N
2:47	60456	N
2:48	60691	N
2:49	60938	N
2:49	61096	V
2:50	61411	V
2:51	61723	N
2:51	61896	V
2:53	62351	N
2:53	62637	N
2:54	62801	V
2:55	63125	N
2:56	63363	N
2:56	63592	N
2:57	63841	N
2:57	64012	V
2:58	64300	N
2:59	64538	N
2:59	64768	N
3:00	64925	V
3:01	65242	N
3:01	65468	N
3:02	65720	N
3:03	65890	V
3:04	66287	N
3:05	66742	N
3:06	67044	N
3:06	67207	V
3:07	67512	N
3:08	67760	N
3:08	68036	N
3:09	68212	V
3:10	68504	N
3:11	68983	N
3:12	69314	N
3:13	69557	N
3:14	70002	N
3:15	70324	N
3:15	70559	N
3:16	70893	N
3:17	71191	N
3:18	71358	V
3:19	71696	N
3:20	72012	N
3:20	72292	N
3:21	72577	N
3:22	72757	V
3:23	73108	N
3:23	73343	N
3:24	73594	N
3:24	73763	V
3:25	74090	N
3:27	74610	N
3:28	74893	N
3:28	75063	V
3:29	75358	N
3:29	75599	N
3:30	75824	N
3:31	76048	N
3:31	76303	N
3:32	76561	N
3:33	76759	V
3:34	77117	N
3:34	77396	N
3:35	77676	N
3:36	77849	V
3:36	78108	N
3:37	78321	N
3:38	78560	N
3:38	78734	V
3:39	79056	N
3:40	79305	N
3:41	79674	N
3:42	79941	N
3:42	80116	V
3:43	80433	N
3:44	80653	N
3:44	80882	N
3:45	81196	N
3:46	81370	V
3:46	81716	N
3:47	82046	N
3:48	82209	V
3:49	82530	N
3:49	82765	N
3:50	82986	N
3:51	83241	N
3:51	83412	V
3:52	83743	N
3:53	83965	N
3:54	84264	N
3:54	84562	N
3:55	84717	V
3:56	85052	N
3:56	85298	N
3:57	85551	N
3:58	85730	V
3:58	86034	N
3:59	86280	N
4:00	86509	N
4:00	86671	V
4:01	86964	N
4:02	87219	N
4:03	87569	N
4:03	87749	V
4:04	88108	N
4:05	88337	N
4:06	88596	N
4:06	88758	V
4:07	89169	N
4:08	89342	V
4:09	89668	N
4:09	89923	N
4:10	90340	N
4:11	90587	N
4:12	90818	N
4:12	91068	N
4:13	91290	N
4:14	91501	N
4:14	91725	N
4:15	91965	N
4:16	92249	N
4:16	92511	N
4:17	92678	V
4:18	92975	N
4:18	93193	N
4:19	93414	N
4:19	93591	V
4:21	93983	N
4:21	94235	N
4:22	94479	N
4:22	94646	V
4:23	94974	N
4:24	95203	N
4:25	95455	N
4:25	95722	N
4:26	95958	N
4:27	96189	N
4:27	96364	V
4:28	96714	N
4:29	96946	N
4:30	97218	N
4:30	97505	N
4:31	97667	V
4:32	97997	N
4:32	98230	N
4:33	98445	N
4:34	98684	N
4:34	98871	V
4:35	99167	N
4:36	99371	N
4:36	99660	N
4:37	99908	N
4:38	100128	N
4:38	100302	V
4:39	100602	N
4:40	100888	N
4:40	101062	V
4:41	101422	N
4:42	101666	N
4:43	101898	N
4:43	102113	N
4:44	102291	V
4:44	102592	N
4:45	102867	N
4:46	103052	V
4:47	103353	N
4:47	103612	N
4:48	103890	N
4:48	103972	+
4:49	104054	V
4:49	104369	N
4:50	104650	N
4:51	104817	V
4:52	105181	N
4:53	105508	N
4:53	105678	V
4:54	105889	+
4:54	106100	N
4:55	106337	N
4:55	106547	N
4:56	106770	N
4:57	106944	V
4:57	107246	N
4:58	107490	N
4:59	107727	N
4:59	107891	V
5:00	108179	N
5:01	108485	N
5:01	108649	V
5:02	108941	N
5:04	109573	N
5:05	109806	N
5:05	110054	N
5:06	110216	V
5:06	110516	N
5:07	110727	N
5:08	111084	N
5:09	111345	N
5:10	111637	N
5:10	111810	V
5:11	112184	N
5:12	112460	N
5:12	112617	V
5:13	112874	N
5:14	113109	N
5:14	113376	N
5:15	113560	V
5:16	113852	N
5:16	114093	N
5:17	114341	N
5:18	114621	N
5:19	114986	N
5:20	115209	N
5:20	115446	N
5:21	115705	N
5:22	115929	N
5:22	116157	N
5:23	116338	V
5:23	116610	N
5:24	116833	N
5:25	117143	N
5:26	117641	N
5:27	117945	N
5:28	118119	V
5:29	118469	N
5:29	118706	N
5:30	118935	N
5:31	119238	N
5:31	119469	N
5:32	119700	N
5:32	119866	V
5:33	120222	N
5:34	120472	N
5:35	120769	N
5:36	121088	N
5:36	121242	V
5:37	121545	N
5:38	121801	N
5:39	122046	N
5:39	122292	N
5:40	122569	N
5:41	122966	N
5:42	123403	N
5:43	123633	N
5:44	123881	N
5:45	124345	N
5:46	124586	N
5:46	124902	N
5:48	125321	N
5:48	125627	N
5:49	125911	N
5:50	126084	V
5:51	126433	N
5:51	126659	N
5:52	126879	N
5:53	127118	N
5:53	127291	V
5:54	127619	N
5:55	128042	N
5:56	128321	N
5:56	128494	V
5:57	128865	N
5:58	129086	N
5:59	129312	N
5:59	129574	N
6:00	129810	N
6:01	130075	N
6:01	130306	N
6:02	130546	N
6:03	130734	V
6:04	131100	N
6:04	131367	N
6:05	131546	V
6:06	131874	N
6:07	132199	N
6:07	132415	N
6:08	132639	N
6:09	132887	N
6:09	133057	V
6:10	133362	N
6:11	133799	N
6:12	134027	N
6:12	134240	N
6:13	134402	V
6:14	134674	N
6:15	135127	N
6:16	135407	N
6:16	135682	N
6:17	135855	V
6:18	136186	N
6:18	136397	N
6:19	136624	N
6:19	136778	V
6:20	137076	N
6:21	137322	N
6:22	137571	N
6:22	137739	V
6:23	138070	N
6:24	138350	N
6:24	138514	V
6:25	138812	N
6:26	139035	N
6:27	139361	N
6:27	139585	N
6:28	139816	N
6:28	140036	N
6:29	140358	N
6:30	140593	N
6:31	140799	N
6:31	140975	V
6:32	141278	N
6:33	141619	N
6:34	141931	N
6:34	142113	V
6:35	142481	N
6:36	142710	N
6:37	142940	N
6:37	143162	N
6:38	143326	V
6:38	143619	N
6:39	143890	N
6:40	144131	N
6:40	144353	N
6:41	144440	+
6:41	144527	V
6:42	144809	N
6:42	145077	N
6:43	145247	V
6:44	145566	N
6:45	145850	N
6:45	146032	V
6:46	146218	+
6:46	146404	N
6:47	146631	N
6:47	146869	N
6:48	147098	N
6:49	147304	N
6:49	147582	N
6:50	147751	V
6:51	148089	N
6:52	148321	N
6:52	148552	N
6:53	148794	N
6:53	149019	N
6:54	149257	N
6:55	149426	V
6:55	149742	N
6:56	150002	N
6:57	150193	V
6:58	150524	N
6:58	150810	N
6:59	151105	N
7:00	151263	V
7:01	151599	N
7:01	151841	N
7:02	152159	N
7:03	152333	V
7:04	152694	N
7:04	152953	N
7:05	153135	V
7:06	153396	N
7:06	153649	N
7:07	153871	N
7:08	154095	N
7:08	154268	V
7:09	154591	N
7:10	154822	N
7:10	155110	N
7:11	155365	N
7:12	155582	N
7:12	155833	N
7:13	156137	N
7:14	156296	V
7:15	156670	N
7:15	156935	N
7:16	157186	N
7:17	157405	N
7:17	157588	V
7:18	157847	N
7:19	158055	N
7:19	158286	N
7:20	158619	N
7:21	158845	N
7:21	159101	N
7:22	159344	N
7:23	159589	N
7:23	159819	N
7:24	160046	N
7:25	160255	N
7:25	160474	N
7:26	160700	N
7:26	160878	V
7:28	161280	N
7:28	161540	N
7:29	161769	N
7:29	161954	V
7:30	162207	N
7:31	162424	N
7:31	162641	N
7:32	162826	V
7:33	163125	N
7:33	163361	N
7:34	163627	N
7:35	163923	N
7:35	164082	V
7:36	164428	N
7:37	164670	N
7:37	164843	V
7:38	165166	N
7:39	165449	N
7:40	165677	N
7:40	165918	N
7:41	166088	V
7:42	166446	N
7:43	166680	N
7:43	166929	N
7:44	167113	V
7:45	167446	N
7:45	167700	N
7:46	167931	N
7:47	168279	N
7:48	168517	N
7:48	168744	N
7:49	168909	V
7:50	169219	N
7:50	169438	N
7:51	169670	N
7:51	169841	V
7:52	170159	N
7:53	170425	N
7:54	170662	N
7:54	170936	N
7:55	171340	N
7:56	171675	N
7:57	171975	N
7:58	172152	V
7:59	172542	N
7:59	172792	N
8:00	173026	N
8:01	173260	N
8:02	173585	N
8:03	173885	N
8:03	174062	V
8:04	174439	N
8:05	174731	N
8:05	174903	V
8:06	175193	N
8:07	175422	N
8:08	175713	N
8:08	175965	N
8:09	176291	N
8:10	176538	N
8:11	176801	N
8:11	177034	N
8:12	177324	N
8:13	177725	N
8:14	178005	N
8:15	178201	V
8:15	178559	N
8:16	178814	N
8:17	179053	N
8:18	179358	N
8:18	179581	N
8:19	179828	N
8:19	179984	V
8:20	180299	N
8:21	180564	N
8:22	180831	N
8:22	181014	V
8:23	181353	N
8:24	181586	N
8:25	181844	N
8:25	182153	N
8:26	182317	V
8:27	182658	N
8:28	182956	N
8:28	183134	V
8:29	183496	N
8:30	183925	N
8:31	184166	N
8:32	184379	N
8:32	184637	N
8:33	184889	N
8:34	185135	N
8:34	185392	N
8:35	185561	V
8:36	185976	N
8:37	186237	N
8:38	186494	N
8:38	186671	V
8:39	186967	N
8:40	187270	N
8:40	187443	V
8:41	187826	N
8:42	188055	N
8:42	188257	N
8:43	188469	N
8:44	188644	V
8:44	188936	N
8:45	189176	N
8:45	189319	~
8:46	189418	N
8:46	189588	V
8:47	189875	N
8:48	190116	N
8:48	190369	N
8:49	190527	V
8:49	190788	N
8:50	191074	N
8:50	191136	~
8:51	191258	V
8:52	191621	N
8:52	191869	N
8:53	192141	N
8:54	192304	V
8:54	192597	N
8:55	192844	N
8:56	193177	N
8:57	193430	N
8:58	193699	N
8:58	193885	V
8:59	194133	N
8:59	194381	N
9:00	194685	N
9:01	194942	N
9:02	195169	N
9:02	195393	N
9:03	195567	V
9:04	195871	N
9:04	196105	N
9:05	196348	N
9:05	196435	+
9:05	196522	V
9:06	196861	N
9:07	197127	N
9:07	197230	~
9:08	197294	V
9:08	197574	N
9:09	197873	N
9:10	198059	V
9:10	198216	+
9:11	198373	N
9:11	198552	~
9:11	198610	N
9:12	198808	N
9:12	199011	N
9:13	199254	N
9:14	199445	N
9:14	199678	N
9:15	199858	V
9:16	200233	N
9:16	200483	N
9:17	200698	N
9:17	200867	V
9:18	201171	N
9:19	201444	N
9:20	201609	V
9:21	201975	N
9:21	202256	N
9:22	202503	N
9:23	202780	N
9:23	202952	V
9:24	203225	N
9:25	203441	N
9:25	203646	N
9:26	203828	V
9:26	204091	N
9:27	204429	N
9:28	204712	N
9:29	204939	N
9:29	205157	N
9:30	205325	V
9:31	205610	N
9:31	205879	N
9:32	206043	V
9:33	206358	N
9:34	206652	N
9:34	206900	N
9:35	207088	V
9:36	207367	N
9:36	207588	N
9:37	207809	N
9:37	207980	V
9:38	208378	N
9:39	208600	N
9:40	208875	N
9:40	209045	V
9:41	209340	N
9:42	209599	N
9:42	209770	V
9:43	210021	N
9:44	210275	N
9:44	210506	N
9:45	210775	N
9:46	211060	N
9:47	211369	N
9:47	211533	V
9:48	211851	N
9:49	212094	N
9:49	212338	N
9:50	212519	V
9:51	212768	N
9:51	212997	N
9:52	213253	N
9:52	213428	V
9:53	213815	N
9:54	214080	N
9:55	214245	V
9:56	214597	N
9:56	214825	N
9:57	215161	N
9:58	215407	N
9:59	215650	N
9:59	215881	N
10:00	216049	V
10:00	216316	N
10:02	216721	N
10:02	216993	N
10:03	217167	V
10:04	217529	N
10:04	217796	N
10:05	218049	N
10:06	218224	V
10:06	218495	N
10:07	218721	N
10:08	218955	N
10:08	219206	N
10:09	219425	N
10:10	219708	N
10:10	219881	V
10:11	220226	N
10:12	220583	N
10:13	220830	N
10:14	221088	N
10:14	221268	V
10:15	221627	N
10:16	221883	N
10:17	222129	N
10:17	222351	N
10:18	222524	V
10:18	222815	N
10:19	223034	N
10:20	223257	N
10:20	223434	V
10:21	223705	N
10:22	224050	N
10:23	224324	N
10:23	224563	N
10:24	224789	N
10:24	224947	V
10:25	225239	N
10:26	225538	N
10:27	225817	N
10:27	226049	N
10:28	226334	N
10:29	226567	N
10:30	226864	N
10:31	227313	N
10:32	227688	N
10:33	227954	N
10:33	228205	N
10:34	228446	N
10:35	228727	N
10:35	228931	N
10:36	229149	N
10:37	229403	N
10:37	229607	N
10:38	229908	N
10:39	230175	N
10:40	230401	N
10:40	230699	N
10:41	230925	N
10:41	231088	V
10:42	231432	N
10:43	231647	N
10:43	231822	V
10:44	232117	N
10:45	232380	N
10:46	232737	N
10:47	232973	N
10:47	233212	N
10:48	233378	V
10:49	233667	N
10:49	233892	N
10:50	234133	N
10:50	234309	V
10:51	234689	N
10:52	234924	N
10:53	235183	N
10:54	235567	N
10:55	235821	N
10:55	236081	N
10:56	236250	V
10:57	236576	N
10:57	236856	N
10:58	237038	V
10:59	237342	N
11:00	237689	N
11:00	237948	N
11:01	238222	N
11:02	238380	V
11:03	238712	N
11:03	238940	N
11:04	239207	N
11:04	239376	V
11:05	239690	N
11:06	239916	N
11:07	240151	N
11:07	240375	N
11:08	240581	N
11:08	240821	N
11:09	241000	V
11:10	241347	N
11:11	241628	N
11:11	241806	V
11:12	242089	N
11:13	242310	N
11:13	242521	N
11:14	242728	N
11:14	242915	V
11:15	243225	N
11:16	243496	N
11:16	243694	V
11:17	243993	N
11:18	244235	N
11:19	244459	N
11:19	244686	N
11:20	244903	N
11:21	245172	N
11:21	245346	V
11:22	245624	N
11:22	245863	N
11:23	246102	N
11:24	246278	V
11:24	246585	N
11:25	246790	N
11:26	247049	N
11:27	247337	N
11:27	247627	N
11:28	247716	+
11:28	247806	V
11:29	248117	N
11:29	248389	N
11:30	248551	V
11:31	248868	N
11:32	249145	N
11:32	249320	V
11:32	249463	+
11:33	249606	N
11:34	249858	N
11:34	250193	N
11:35	250476	N
11:36	250642	V
11:36	250912	N
11:37	251151	N
11:38	251372	N
11:38	251582	N
11:39	251763	V
11:40	252128	N
11:40	252349	N
11:41	252619	N
11:42	252815	N
11:42	253014	N
11:43	253224	N
11:43	253307	+
11:43	253391	V
11:44	253715	N
11:45	254005	N
11:46	254179	V
11:46	254481	N
11:47	254751	N
11:48	254915	V
11:48	255055	+
11:48	255195	N
11:49	255595	N
11:50	255850	N
11:51	256115	N
11:51	256292	V
11:52	256614	N
11:53	256891	N
11:54	257066	V
11:54	257345	N
11:55	257558	N
11:56	257787	N
11:56	258011	N
11:57	258253	N
11:58	258502	N
11:58	258745	N
11:59	258923	V
11:59	259184	N
12:00	259403	N
12:01	259654	N
12:01	259881	N
12:02	260117	N
12:03	260295	V
12:03	260610	N
12:04	260832	N
12:05	261079	N
12:05	261161	+
12:05	261243	V
12:06	261526	N
12:07	261776	N
12:07	261944	V
12:08	262267	N
12:09	262559	N
12:09	262738	V
12:10	262903	+
12:10	263069	N
12:11	263302	N
12:12	263552	N
12:12	263729	V
12:13	264129	N
12:14	264366	N
12:15	264614	N
12:15	264799	V
12:16	265091	N
12:17	265353	N
12:17	265576	N
12:18	265805	N
12:18	265966	V
12:19	266269	N
12:20	266500	N
12:20	266756	N
12:21	266984	N
12:22	267209	N
12:22	267467	N
12:23	267712	N
12:24	267907	N
12:24	268143	N
12:25	268368	N
12:26	268706	N
12:27	268984	N
12:27	269217	N
12:28	269393	V
12:29	269690	N
12:29	269938	N
12:30	270165	N
12:30	270329	V
12:31	270614	N
12:32	270821	N
12:32	271068	N
12:33	271233	V
12:34	271593	N
12:35	272009	N
12:36	272418	N
12:37	272656	N
12:38	272892	N
12:38	272977	+
12:38	273063	V
12:39	273338	N
12:39	273540	V
12:40	273800	N
12:41	273979	V
12:41	274162	+
12:42	274345	N
12:43	274827	N
12:44	275188	N
12:45	275562	N
12:46	275814	N
12:46	276056	N
12:47	276305	N
12:47	276475	V
12:48	276757	N
12:49	276989	N
12:50	277229	N
12:50	277465	N
12:51	277698	N
12:51	277873	V
12:52	278168	N
12:53	278484	N
12:54	278747	N
12:54	278977	N
12:55	279214	N
12:56	279573	N
12:57	280051	N
12:59	280543	N
13:00	280812	N
13:00	280969	V
13:01	281284	N
13:02	281534	N
13:02	281769	N
13:03	282126	N
13:04	282399	N
13:04	282509	+
13:04	282581	V
13:05	282796	V
13:05	282930	V
13:06	283150	+
13:06	283282	N
13:07	283537	N
13:08	283761	N
13:08	283999	N
13:09	284163	V
13:10	284556	N
13:11	284797	N
13:12	285208	N
13:12	285426	N
13:13	285801	N
13:14	286045	N
13:15	286279	N
13:16	286560	N
13:16	286863	N
13:17	287036	V
13:18	287460	N
13:19	287766	N
13:19	287994	N
13:20	288235	N
13:21	288495	N
13:21	288663	V
13:23	289161	N
13:23	289413	N
13:24	289579	V
13:25	289872	N
13:25	290115	N
13:26	290518	N
13:27	290779	N
13:28	291028	N
13:29	291276	N
13:29	291442	V
13:30	291736	N
13:30	291907	V
13:31	292217	N
13:32	292623	N
13:33	292876	N
13:34	293172	N
13:35	293464	N
13:35	293634	V
13:37	294136	N
13:37	294376	N
13:38	294590	N
13:38	294829	N
13:39	294997	V
13:40	295291	N
13:40	295539	N
13:41	295768	N
13:42	296110	N
13:43	296367	N
13:43	296536	V
13:44	296872	N
13:45	297272	N
13:46	297608	N
13:47	297933	N
13:48	298395	N
13:49	298752	N
13:50	298972	N
13:51	299288	N
13:51	299496	V
13:52	299780	N
13:53	300018	N
13:54	300243	N
13:54	300410	V
13:55	300701	N
13:56	300971	N
13:56	301134	V
13:57	301526	N
13:58	301770	N
13:58	302024	N
13:59	302203	V
14:00	302483	N
14:00	302701	N
14:01	302932	N
14:01	303035	+
14:01	303093	V
14:02	303257	V
14:02	303431	V
14:03	303654	+
14:03	303737	N
14:04	304112	N
14:05	304466	N
14:06	304721	N
14:07	304947	N
14:07	305192	N
14:08	305500	N
14:09	305668	V
14:09	305992	N
14:10	306356	N
14:11	306595	N
14:12	306815	N
14:12	307027	N
14:13	307188	V
14:14	307476	N
14:14	307702	N
14:15	307971	N
14:16	308416	N
14:17	308712	N
14:17	308872	V
14:18	309223	N
14:19	309470	N
14:20	309691	N
14:21	309986	N
14:21	310216	N
14:22	310482	N
14:23	310894	N
14:24	311143	N
14:25	311420	N
14:25	311583	V
14:26	311845	N
14:26	312072	N
14:27	312345	N
14:28	312518	V
14:29	312855	N
14:29	313087	N
14:30	313291	N
14:30	313471	V
14:31	313738	N
14:32	313950	N
14:32	314183	N
14:33	314371	V
14:34	314665	N
14:34	314923	N
14:35	315216	N
14:36	315438	N
14:37	315764	N
14:37	316015	N
14:38	316249	N
14:38	316418	V
14:39	316717	N
14:40	316970	N
14:41	317273	N
14:41	317434	V
14:42	317768	N
14:43	317978	N
14:43	318171	N
14:44	318454	N
14:45	318691	N
14:45	318937	N
14:46	319119	V
14:47	319434	N
14:47	319673	N
14:48	319909	N
14:49	320145	N
14:50	320410	N
14:50	320662	N
14:51	320947	N
14:52	321212	N
14:52	321462	N
14:53	321629	V
14:54	321987	N
14:55	322212	N
14:55	322471	N
14:56	322711	N
14:57	322932	N
14:57	323161	N
14:58	323342	V
14:59	323698	N
14:59	323977	N
15:00	324138	V
15:01	324487	N
15:02	324740	N
15:02	325056	N
15:03	325282	N
15:04	325509	N
15:04	325797	N
15:05	325969	V
15:06	326254	N
15:07	326563	N
15:07	326718	V
15:08	327139	N
15:09	327420	N
15:10	327654	N
15:10	327876	N
15:11	328045	V
15:12	328547	N
15:13	329034	N
15:14	329373	N
15:15	329699	N
15:16	329959	N
15:17	330201	N
15:17	330428	N
15:18	330647	N
15:18	330806	V
15:19	331101	N
15:20	331369	N
15:20	331540	V
15:22	332037	N
15:23	332297	N
15:23	332527	N
15:24	332708	V
15:25	333076	N
15:25	333287	N
15:26	333556	N
15:27	333809	N
15:27	334050	N
15:28	334301	N
15:29	334472	V
15:30	334878	N
15:30	335091	N
15:31	335319	N
15:32	335578	N
15:32	335810	N
15:33	336103	N
15:34	336381	N
15:35	336618	N
15:35	336855	N
15:36	337107	N
15:37	337468	N
15:38	337759	N
15:38	337923	V
15:39	338262	N
15:40	338504	N
15:40	338750	N
15:41	338982	N
15:42	339142	V
15:42	339453	N
15:43	339665	N
15:44	339905	N
15:44	340137	N
15:45	340383	N
15:46	340653	N
15:46	340891	N
15:47	341166	N
15:48	341331	V
15:49	341682	N
15:49	341921	N
15:50	342305	N
15:51	342543	N
15:52	342800	N
15:52	342971	V
15:53	343306	N
15:54	343535	N
15:55	343827	N
15:55	344083	N
15:56	344251	V
15:57	344522	N
15:57	344743	N
15:58	344964	N
15:58	345149	V
15:59	345446	N
16:00	345692	N
16:00	345932	N
16:01	346153	N
16:02	346393	N
16:02	346613	N
16:03	346829	N
16:04	347078	N
16:05	347469	N
16:05	347670	N
16:06	347932	N
16:06	348019	+
16:06	348107	V
16:08	348573	N
16:09	348869	N
16:09	349040	V
16:10	349351	N
16:11	349620	N
16:11	349785	V
16:12	350104	N
16:13	350377	N
16:13	350540	V
16:14	350701	+
16:14	350862	N
16:15	351114	N
16:15	351324	N
16:16	351622	N
16:17	351865	N
16:18	352172	N
16:18	352385	N
16:19	352595	N
16:19	352794	N
16:20	353006	N
16:21	353254	N
16:22	353528	N
16:22	353810	N
16:23	353980	V
16:24	354306	N
16:24	354531	N
16:25	354756	N
16:25	354919	V
16:26	355268	N
16:27	355497	N
16:28	355758	N
16:28	355984	N
16:29	356211	N
16:30	356401	V
16:30	356662	N
16:31	356897	N
16:31	357117	N
16:32	357283	V
16:33	357617	N
16:34	358017	N
16:35	358353	N
16:36	358594	N
16:36	358807	N
16:37	359042	N
16:37	359201	V
16:38	359469	N
16:39	359751	N
16:39	359920	V
16:40	360291	N
16:41	360533	N
16:42	360776	N
16:42	360938	V
16:43	361271	N
16:44	361513	N
16:45	361910	N
16:46	362187	N
16:46	362352	V
16:47	362675	N
16:48	362995	N
16:48	363215	N
16:49	363471	N
16:50	363639	V
16:50	363933	N
16:51	364178	N
16:52	364406	N
16:52	364668	N
16:53	364752	+
16:53	364836	V
16:54	365150	N
16:54	365390	N
16:55	365557	V
16:56	365878	N
16:57	366183	N
16:57	366347	V
16:58	366521	+
16:58	366695	N
16:59	366931	N
17:00	367226	N
17:00	367381	V
17:01	367680	N
17:01	367916	N
17:02	368096	V
17:03	368381	N
17:03	368552	V
17:05	369008	N
17:05	369264	N
17:06	369543	N
17:06	369699	V
17:07	369997	N
17:08	370231	N
17:09	370467	N
17:09	370649	V
17:10	371009	N
17:11	371303	N
17:11	371474	V
17:12	371841	N
17:13	372062	N
17:14	372284	N
17:14	372528	N
17:15	372706	V
17:16	373042	N
17:17	373367	N
17:17	373534	V
17:18	373907	N
17:19	374164	N
17:20	374465	N
17:20	374738	N
17:21	374998	N
17:22	375176	V
17:23	375529	N
17:24	375869	N
17:24	376104	N
17:25	376412	N
17:26	376568	V
17:26	376865	N
17:27	377104	N
17:28	377338	N
17:28	377521	~
17:28	377570	N
17:29	377745	V
17:30	378045	N
17:31	378430	N
17:31	378482	~
17:31	378654	N
17:32	378895	N
17:33	379092	V
17:33	379364	N
17:34	379603	N
17:35	379851	N
17:35	380036	V
17:36	380323	N
17:37	380550	N
17:37	380777	N
17:38	380945	V
17:39	381303	N
17:39	381546	N
17:40	381793	N
17:40	381959	V
17:41	382234	N
17:42	382651	N
17:43	382882	N
17:44	383109	N
17:44	383342	N
17:45	383519	V
17:46	383825	N
17:47	384223	N
17:48	384489	N
17:48	384725	N
17:49	384961	N
17:50	385208	N
17:50	385368	V
17:51	385710	N
17:52	385975	N
17:52	386267	N
17:53	386436	V
17:54	386778	V
17:55	387018	N
17:55	387185	V
17:56	387513	N
17:57	387914	N
17:58	388243	N
17:59	388503	N
17:59	388731	N
18:00	388973	N
18:00	389151	V
18:01	389482	N
18:02	389705	N
18:03	389959	N
18:03	390125	V
18:04	390507	N
18:05	390764	N
18:06	391004	N
18:06	391189	V
18:07	391512	N
18:08	391747	N
18:08	391991	N
18:09	392169	V
18:10	392721	N
18:12	393198	N
18:13	393527	N
18:13	393792	N
18:14	394071	N
18:15	394240	V
18:16	394599	N
18:17	395055	N
18:18	395314	N
18:18	395420	~
18:18	395473	V
18:19	395742	N
18:19	395865	~
18:20	396139	N
18:21	396396	N
18:21	396640	N
18:22	396876	N
18:23	397186	N
18:24	397600	N
18:25	397865	N
18:25	398032	V
18:26	398429	N
18:28	398912	N
18:28	399163	N
18:29	399436	N
18:30	399600	V
18:30	399934	N
18:31	400175	N
18:32	400436	N
18:32	400603	V
18:33	400910	N
18:34	401146	N
18:35	401607	N
18:36	401914	N
18:37	402133	N
18:37	402359	N
18:38	402663	N
18:38	402833	V
18:39	403161	N
18:40	403418	N
18:41	403643	N
18:41	403867	N
18:42	404034	V
18:43	404339	N
18:43	404622	N
18:44	404781	V
18:45	405073	N
18:45	405317	N
18:46	405583	N
18:47	405762	V
18:48	406131	N
18:48	406368	N
18:49	406613	N
18:49	406779	V
18:51	407187	N
18:51	407479	N
18:53	407925	N
18:54	408358	N
18:55	408610	N
18:55	408772	V
18:56	409071	N
18:56	409293	N
18:57	409535	N
18:58	409712	V
18:59	410072	N
18:59	410396	N
19:00	410560	V
19:01	410900	N
19:02	411132	N
19:02	411366	N
19:03	411539	V
19:04	411925	N
19:04	412167	N
19:05	412418	N
19:06	412592	V
19:06	412919	N
19:07	413207	N
19:08	413372	V
19:09	413907	N
19:10	414153	N
19:11	414387	N
19:11	414694	N
19:12	414905	N
19:13	415187	N
19:13	415424	N
19:14	415561	~
19:14	415663	N
19:15	415912	N
19:15	416040	~
19:15	416080	V
19:16	416451	N
19:17	416617	V
19:18	416930	N
19:18	417188	N
19:19	417413	N
19:20	417641	N
19:20	417926	N
19:21	418197	N
19:22	418459	N
19:23	418754	N
19:24	419075	N
19:24	419308	N
19:25	419574	N
19:26	419979	N
19:27	420215	N
19:27	420467	N
19:28	420735	N
19:29	420902	V
19:29	421199	N
19:30	421418	N
19:31	421703	N
19:32	422008	N
19:32	422174	V
19:33	422526	N
19:34	422790	N
19:35	423051	N
19:35	423217	V
19:36	423534	N
19:37	423761	N
19:37	423982	N
19:38	424220	N
19:38	424382	V
19:39	424707	N
19:40	424967	N
19:40	425146	V
19:41	425387	~
19:41	425487	N
19:42	425736	N
19:43	425973	N
19:43	426140	V
19:44	426504	N
19:45	426790	~
19:45	426832	N
19:46	427076	N
19:46	427307	N
19:47	427561	N
19:48	427717	V
19:48	428035	N
19:49	428342	N
19:50	428593	N
19:51	428996	N
19:52	429335	N
19:53	429652	N
19:54	429900	N
19:54	430138	N
19:55	430429	N
19:56	430736	N
19:56	430899	V
19:57	431231	N
19:58	431483	N
19:59	431731	N
19:59	431913	V
20:00	432182	N
20:01	432403	N
20:02	432732	N
20:02	432964	N
20:03	433185	N
20:03	433385	V
20:05	433841	N
20:06	434278	N
20:06	434509	N
20:07	434736	N
20:08	435163	N
20:09	435406	N
20:10	435668	N
20:11	435975	N
20:11	436222	N
20:12	436509	N
20:13	436693	V
20:13	437007	N
20:14	437170	V
20:15	437454	N
20:15	437692	N
20:16	437916	N
20:16	438109	V
20:17	438410	N
20:18	438652	N
20:19	439071	N
20:20	439411	N
20:21	439717	N
20:21	439894	V
20:22	440218	N
20:23	440624	N
20:24	440844	N
20:25	441069	N
20:25	441237	V
20:26	441500	N
20:27	441762	N
20:27	441947	V
20:28	442252	N
20:29	442502	N
20:29	442779	N
20:30	442939	V
20:31	443243	N
20:31	443481	N
20:32	443801	N
20:33	444057	N
20:34	444300	N
20:34	444579	N
20:35	444741	V
20:36	445033	N
20:36	445298	N
20:37	445473	V
20:38	445773	N
20:39	446199	N
20:40	446463	N
20:40	446729	N
20:42	447143	N
20:42	447377	N
20:43	447660	N
20:43	447821	V
20:45	448381	N
20:46	448819	N
20:47	449097	N
20:47	449260	V
20:48	449572	N
20:49	449885	N
20:50	450045	V
20:50	450354	V
20:51	450687	N
20:52	450930	N
20:53	451174	N
20:53	451346	V
20:54	451639	N
20:55	451961	N
20:55	452122	V
20:56	452453	N
20:57	452706	N
20:58	453196	N
21:00	453674	N
21:00	453898	N
21:01	454263	N
21:03	454681	N
21:03	454926	N
21:04	455189	N
21:04	455364	V
21:06	455778	N
21:06	456020	N
21:07	456269	N
21:07	456433	V
21:08	456837	N
21:10	457311	N
21:11	457576	N
21:11	457864	N
21:12	458023	V
21:13	458426	N
21:14	458668	N
21:14	458893	N
21:15	459238	N
21:16	459560	N
21:17	459821	N
21:17	459988	V
21:18	460276	N
21:19	460587	N
21:19	460748	V
21:20	461063	N
21:21	461420	N
21:22	461671	N
21:23	461930	N
21:23	462101	V
21:24	462394	N
21:25	462610	N
21:25	462856	N
21:26	463028	V
21:27	463336	N
21:27	463628	N
21:28	463889	N
21:29	464062	V
21:29	464350	N
21:30	464577	N
21:31	464848	N
21:31	465003	V
21:32	465335	N
21:33	465579	N
21:33	465830	N
21:34	466137	N
21:35	466401	N
21:36	466657	N
21:36	466909	N
21:37	467239	N
21:39	467732	N
21:40	468298	N
21:41	468547	N
21:41	468714	V
21:42	469063	N
21:43	469284	N
21:44	469499	N
21:45	469969	N
21:46	470392	N
21:47	470626	N
21:48	470883	N
21:48	471046	V
21:49	471410	N
21:50	471810	N
21:51	472030	N
21:51	472266	N
21:52	472506	N
21:53	472680	V
21:53	472993	N
21:54	473225	N
21:55	473445	N
21:55	473698	N
21:56	473934	N
21:57	474159	N
21:57	474392	N
21:58	474683	N
21:59	474949	N
22:00	475282	N
22:00	475497	N
22:01	475720	N
22:02	476009	N
22:02	476266	N
22:04	476675	N
22:05	477126	N
22:06	477386	N
22:06	477565	V
22:07	477827	N
22:07	478069	N
22:08	478387	N
22:09	478638	N
22:10	479068	N
22:11	479329	N
22:12	479708	N
22:13	480138	N
22:14	480371	N
22:15	480602	N
22:15	480928	N
22:16	481192	N
22:17	481506	N
22:18	481840	N
22:18	481996	V
22:20	482466	N
22:20	482733	N
22:21	483054	N
22:22	483327	N
22:23	483480	V
22:24	483868	N
22:24	484113	N
22:25	484433	N
22:26	484660	N
22:26	484902	N
22:28	485381	N
22:29	485851	N
22:30	486080	N
22:31	486379	N
22:31	486619	N
22:32	486847	N
22:33	487118	N
22:33	487368	N
22:34	487621	N
22:35	487933	N
22:36	488381	N
22:37	488637	N
22:37	488802	V
22:38	489228	N
22:39	489502	N
22:40	489751	N
22:40	489925	V
22:41	490225	N
22:42	490415	V
22:43	490784	N
22:43	491009	N
22:44	491326	N
22:45	491575	N
22:46	491849	N
22:47	492303	N
22:48	492562	N
22:48	492728	V
22:49	493028	N
22:50	493258	N
22:50	493515	N
22:51	493785	N
22:52	494052	N
22:53	494331	N
22:53	494572	N
22:54	494914	N
22:55	495238	N
22:56	495493	N
22:57	495774	N
22:58	496110	N
22:58	496376	N
22:59	496675	N
23:00	496839	V
23:00	497149	N
23:01	497399	N
23:02	497637	N
23:03	497951	N
23:04	498393	N
23:05	498705	N
23:05	498866	V
23:06	499284	N
23:08	499733	N
23:08	499996	N
23:09	500285	N
23:10	500635	N
23:11	500923	N
23:12	501353	N
23:13	501588	N
23:14	502020	N
23:16	502571	N
23:16	502817	N
23:17	503077	N
23:17	503236	V
23:18	503607	N
23:20	504009	N
23:20	504335	N
23:21	504663	N
23:22	504868	V
23:23	505246	N
23:24	505490	N
23:24	505781	N
23:26	506287	N
23:27	506554	N
23:27	506733	V
23:28	507061	N
23:29	507407	N
23:30	507649	N
23:31	507998	N
23:32	508340	N
23:32	508623	N
23:34	509047	N
23:34	509327	N
23:35	509587	N
23:36	509760	V
23:36	510105	N
23:37	510425	N
23:38	510587	V
23:39	510881	N
23:39	511137	N
23:40	511449	N
23:41	511623	V
23:41	511919	N
23:42	512177	N
23:43	512338	V
23:44	512660	N
23:44	512934	N
23:45	513236	N
23:46	513519	N
23:47	513824	N
23:48	514114	N
23:48	514349	N
23:49	514646	N
23:50	514813	V
23:51	515194	N
23:52	515674	N
23:53	515932	N
23:53	516219	N
23:54	516535	N
23:55	516796	N
23:56	517068	N
23:57	517609	N
23:58	517953	N
23:59	518212	N
24:00	518476	N
24:00	518734	N
24:01	518981	N
24:02	519220	N
24:02	519471	N
24:03	519639	V
24:04	519985	N
24:05	520245	N
24:05	520485	N
24:07	521012	N
24:08	521339	N
24:08	521609	N
24:09	521867	N
24:10	522050	V
24:11	522373	N
24:11	522597	N
24:12	522837	N
24:12	523060	N
24:13	523292	N
24:14	523687	N
24:15	524036	N
24:16	524279	N
24:17	524579	N
24:17	524841	N
24:18	525069	N
24:19	525327	N
24:20	525720	N
24:21	525983	N
24:21	526154	V
24:22	526580	N
24:24	527108	N
24:25	527428	N
24:25	527658	N
24:26	527829	V
24:27	528256	N
24:28	528536	N
24:28	528775	N
24:29	528958	V
24:30	529221	N
24:30	529446	N
24:31	529676	N
24:32	529927	N
24:32	530150	N
24:33	530379	N
24:33	530620	N
24:34	530794	V
24:35	531139	N
24:36	531398	N
24:36	531682	N
24:37	531958	N
24:38	532275	N
24:39	532589	N
24:40	532894	N
24:41	533190	N
24:41	533432	N
24:42	533662	N
24:43	533901	N
24:43	534225	N
24:44	534544	N
24:45	534713	V
24:46	535074	N
24:47	535332	N
24:47	535501	V
24:48	536028	N
24:49	536276	N
24:50	536606	N
24:51	536863	N
24:52	537303	N
24:53	537704	N
24:54	538025	N
24:55	538266	N
24:55	538538	N
24:56	538840	N
24:57	539096	N
24:58	539440	N
24:59	539709	N
24:59	539955	N
25:00	540200	N
25:01	540473	N
25:01	540712	N
25:02	540912	V
25:03	541275	N
25:04	541527	N
25:04	541789	N
25:05	542033	N
25:06	542272	N
25:07	542672	N
25:08	543006	N
25:09	543286	N
25:09	543580	N
25:10	543883	N
25:11	544145	N
25:12	544328	V
25:13	544686	N
25:13	545002	N
25:14	545244	N
25:15	545517	N
25:16	545828	N
25:17	546175	N
25:17	546433	N
25:18	546665	N
25:19	546961	N
25:20	547324	N
25:21	547571	N
25:22	547926	N
25:22	548258	N
25:23	548511	N
25:24	548783	N
25:25	549019	N
25:25	549282	N
25:26	549587	N
25:27	549837	N
25:28	550239	N
25:29	550519	N
25:29	550691	V
25:31	551207	N
25:31	551446	N
25:32	551608	V
25:33	551978	N
25:34	552264	N
25:34	552570	N
25:35	552827	N
25:36	553242	N
25:37	553503	N
25:38	553908	N
25:39	554204	N
25:39	554380	V
25:40	554706	N
25:41	555025	N
25:42	555258	N
25:43	555528	N
25:43	555763	N
25:44	556073	N
25:45	556329	N
25:46	556622	N
25:47	556945	N
25:47	557192	N
25:48	557437	N
25:49	557732	N
25:49	557963	N
25:50	558212	N
25:51	558542	N
25:52	558847	N
25:53	559110	N
25:54	559510	N
25:54	559799	N
25:55	559957	V
25:56	560315	N
25:57	560577	N
25:57	560838	N
25:58	561158	N
25:59	561448	N
26:00	561619	V
26:00	561913	N
26:02	562345	N
26:02	562594	N
26:03	562832	N
26:04	563143	N
26:05	563644	N
26:06	563892	N
26:06	564117	N
26:07	564301	V
26:08	564566	N
26:09	564855	N
26:09	565122	N
26:10	565441	N
26:11	565685	N
26:12	566002	N
26:12	566234	N
26:13	566457	N
26:14	566678	N
26:14	566842	V
26:15	567153	N
26:16	567615	N
26:17	568029	N
26:18	568405	N
26:19	568652	N
26:20	568874	N
26:20	569134	N
26:21	569425	N
26:22	569670	N
26:23	569911	N
26:23	570187	N
26:24	570511	N
26:25	570762	N
26:26	571004	N
26:27	571424	N
26:28	571789	N
26:29	572073	N
26:29	572334	N
26:30	572600	N
26:31	572825	N
26:31	572979	V
26:32	573292	N
26:33	573542	N
26:33	573799	N
26:34	574083	N
26:35	574354	N
26:36	574750	N
26:37	574994	N
26:38	575287	N
26:38	575554	N
26:39	575814	N
26:40	576137	N
26:41	576650	N
26:42	576961	N
26:43	577183	N
26:43	577423	N
26:44	577646	N
26:45	577884	N
26:45	578122	N
26:46	578459	N
26:47	578707	N
26:48	578939	N
26:48	579167	N
26:49	579415	N
26:50	579690	N
26:50	579944	N
26:52	580322	N
26:53	580785	N
26:53	581031	N
26:54	581263	N
26:55	581487	N
26:56	581791	N
26:56	582049	N
26:57	582362	N
26:58	582630	N
26:59	582870	N
26:59	583098	N
27:00	583320	N
27:00	583533	N
27:01	583692	V
27:02	584024	N
27:03	584352	N
27:04	584801	N
27:05	585052	N
27:05	585231	V
27:06	585485	N
27:06	585698	N
27:07	585911	N
27:08	586137	N
27:08	586368	N
27:09	586540	V
27:10	586924	N
27:10	587157	N
27:11	587395	N
27:12	587648	N
27:13	587971	N
27:13	588217	N
27:15	588608	N
27:15	588873	N
27:16	589044	V
27:17	589416	N
27:17	589678	N
27:18	589969	N
27:19	590220	N
27:20	590614	N
27:21	590905	N
27:21	591081	V
27:22	591471	N
27:23	591698	N
27:24	591920	N
27:24	592175	N
27:25	592436	N
27:26	592828	N
27:27	593090	N
27:27	593260	V
27:28	593591	N
27:29	593823	N
27:30	594047	N
27:30	594295	N
27:31	594526	N
27:32	594760	N
27:32	595000	N
27:34	595450	N
27:34	595746	N
27:35	595979	N
27:36	596246	N
27:36	596486	N
27:37	596798	N
27:38	597085	N
27:39	597331	N
27:40	597664	N
27:41	597982	N
27:41	598251	N
27:42	598522	N
27:43	598763	N
27:43	598982	N
27:44	599211	N
27:45	599473	N
27:46	599767	N
27:46	600026	N
27:47	600296	N
27:48	600531	N
27:48	600796	N
27:49	600950	V
27:50	601278	N
27:50	601537	N
27:51	601861	N
27:52	602103	N
27:53	602356	N
27:53	602580	N
27:54	602808	N
27:55	603041	N
27:55	603282	N
27:56	603704	N
27:57	603969	N
27:58	604229	N
27:59	604471	N
27:59	604732	N
28:00	604986	N
28:01	605218	N
28:01	605451	N
28:02	605730	N
28:03	605979	N
28:04	606303	N
28:04	606562	N
28:05	606796	N
28:06	607015	N
28:06	607272	N
28:07	607525	N
28:08	607764	N
28:09	608154	N
28:09	608398	N
28:10	608636	N
28:11	608885	N
28:12	609197	N
28:12	609477	N
28:13	609724	N
28:14	609891	V
28:15	610243	N
28:15	610534	N
28:16	610789	N
28:17	611067	N
28:18	611402	N
28:19	611803	N
28:20	612145	N
28:21	612405	N
28:21	612692	N
28:22	613010	N
28:23	613243	N
28:24	613473	N
28:24	613692	N
28:25	613939	N
28:26	614367	N
28:27	614631	N
28:28	614925	N
28:28	615191	N
28:29	615344	V
28:30	615742	N
28:31	616140	N
28:32	616406	N
28:33	616770	N
28:34	617248	N
28:35	617692	N
28:36	617934	N
28:37	618169	N
28:38	618537	N
28:38	618787	N
28:39	618965	V
28:40	619328	N
28:41	619667	N
28:41	619887	N
28:42	620119	N
28:43	620343	N
28:43	620549	N
28:44	620854	N
28:45	621114	N
28:45	621349	N
28:47	621788	N
28:47	622034	N
28:48	622274	N
28:49	622705	N
28:50	622959	N
28:50	623120	V
28:51	623447	N
28:52	623763	N
28:53	624051	N
28:54	624345	N
28:54	624578	N
28:55	624824	N
28:56	625104	N
28:57	625366	N
28:57	625660	N
28:59	626139	N
29:00	626448	N
29:00	626759	N
29:01	626990	N
29:02	627410	N
29:03	627681	N
29:04	628029	N
29:05	628268	N
29:05	628528	N
29:06	628764	N
29:07	629028	N
29:08	629288	N
29:08	629555	N
29:09	629814	N
29:10	630154	N
29:11	630442	N
29:11	630686	N
29:12	630976	N
29:13	631296	N
29:14	631524	N
29:14	631773	N
29:15	632076	N
29:16	632346	N
29:17	632656	N
29:18	632896	N
29:18	633144	N
29:19	633413	N
29:20	633716	N
29:20	633954	N
29:22	634330	N
29:22	634677	N
29:23	634922	N
29:24	635087	V
29:25	635493	N
29:26	635900	N
29:27	636148	N
29:27	636417	N
29:28	636654	N
29:29	636945	N
29:30	637435	N
29:31	637701	N
29:32	638024	N
29:32	638267	N
29:33	638522	N
29:34	638788	N
29:35	639139	N
29:36	639548	N
29:37	639851	N
29:37	640071	N
29:38	640304	N
29:39	640578	N
29:40	640867	N
29:41	641163	N
29:41	641439	N
29:42	641689	N
29:43	641985	N
29:44	642266	N
29:45	642662	N
29:46	642972	N
29:46	643265	N
29:47	643568	N
29:48	643850	N
29:49	644094	N
29:49	644316	N
29:50	644549	N
29:51	644791	N
29:51	645053	N
29:52	645314	N
29:53	645604	N
29:53	645835	N
29:54	646076	N
29:55	646331	N
29:56	646636	N
29:57	647068	N
29:58	647321	N
29:58	647584	N
29:59	647967	N
30:00	648290	N
30:01	648536	N
30:02	648763	N
30:02	648982	N
30:03	649236	N
30:04	649530	N
30:05	649810	N
