0:00	81	N
0:01	361	N
0:01	646	N
0:02	892	N
0:03	1193	N
0:04	1482	N
0:04	1778	N
0:05	2072	N
0:06	2335	N
0:07	2644	N
0:08	2939	N
0:08	3191	N
0:09	3520	N
0:10	3831	N
0:11	4109	N
0:12	4405	N
0:13	4690	N
0:13	4975	N
0:14	5235	N
0:15	5571	N
0:16	5892	N
0:17	6193	N
0:18	6483	N
0:18	6776	N
0:19	7031	N
0:20	7331	N
0:21	7609	N
0:21	7894	N
0:22	8200	N
0:23	8479	N
0:24	8762	N
0:25	9043	N
0:25	9294	N
0:26	9604	N
0:27	9916	N
0:28	10196	N
0:29	10515	N
0:29	10782	N
0:30	11072	N
0:31	11356	N
0:32	11641	N
0:33	11908	N
0:34	12240	N
0:34	12547	N
0:35	12820	N
0:36	13124	N
0:37	13405	N
0:37	13673	N
0:38	13961	N
0:39	14252	N
0:40	14551	N
0:41	14866	N
0:42	15137	N
0:42	15423	N
0:43	15708	N
0:44	15961	N
0:45	16274	N
0:46	16571	N
0:46	16859	N
0:47	17147	N
0:48	17414	N
0:49	17720	N
0:49	17996	N
0:50	18255	N
0:51	18574	N
0:52	18861	N
0:53	19154	N
0:53	19437	N
0:54	19712	N
0:55	20001	N
0:56	20282	N
0:57	20544	N
0:57	20878	N
0:58	21171	N
0:59	21458	N
1:00	21736	N
1:01	22043	N
1:01	22305	N
1:02	22585	N
1:03	22911	N
1:04	23203	N
1:05	23475	N
1:06	23786	N
1:06	24083	N
1:07	24348	N
1:08	24633	N
1:09	24921	N
1:10	25218	N
1:10	25536	N
1:11	25805	N
1:12	26126	N
1:13	26400	N
1:14	26681	N
1:14	26986	N
1:15	27280	N
1:16	27604	N
1:17	27894	N
1:18	28190	N
1:19	28457	N
1:19	28768	N
1:20	29048	N
1:21	29343	N
1:22	29664	N
1:23	29954	N
1:23	30230	N
1:24	30544	N
1:25	30825	N
1:26	31089	N
1:27	31398	N
1:28	31693	N
1:28	31981	N
1:29	32275	N
1:30	32568	N
1:31	32826	N
1:32	33127	N
1:32	33390	N
1:33	33699	N
1:34	33994	N
1:35	34291	N
1:36	34591	N
1:36	34898	N
1:37	35191	N
1:38	35484	N
1:39	35801	N
1:40	36122	N
1:41	36434	N
1:42	36743	N
1:42	37058	N
1:43	37319	N
1:44	37634	N
1:45	37959	N
1:46	38280	N
1:47	38603	N
1:48	38914	N
1:48	39144	~
1:48	39221	N
1:49	39524	N
1:50	39818	N
1:51	40139	N
1:52	40405	~
1:52	40464	N
1:53	40773	N
1:53	41039	N
1:54	41362	N
1:55	41595	~
1:55	41665	N
1:56	41943	N
1:56	42095	~
1:57	42269	N
1:58	42575	N
1:59	42862	N
1:59	43177	N
2:00	43468	N
2:01	43743	N
2:02	44045	N
2:03	44339	N
2:04	44640	N
2:04	44960	N
2:05	45239	N
2:06	45529	N
2:07	45830	N
2:08	46092	N
2:08	46375	N
2:09	46681	N
2:10	46978	N
2:11	47265	N
2:12	47549	N
2:12	47815	N
2:13	48099	N
2:14	48377	N
2:15	48646	N
2:16	48964	N
2:16	49237	N
2:17	49524	N
2:18	49808	N
2:19	50087	N
2:19	50388	N
2:20	50656	N
2:21	50959	N
2:22	51262	N
2:23	51565	N
2:24	51840	N
2:24	52157	N
2:25	52435	N
2:26	52706	N
2:27	53037	N
2:28	53330	N
2:28	53636	N
2:29	53924	N
2:30	54236	N
2:31	54498	N
2:32	54813	N
2:33	55108	N
2:33	55399	N
2:34	55723	N
2:35	56017	N
2:36	56316	N
2:37	56603	N
2:38	56903	N
2:38	57172	N
2:39	57480	N
2:40	57791	N
2:41	58094	N
2:42	58375	N
2:43	58685	N
2:43	58952	N
2:44	59246	N
2:45	59548	N
2:46	59854	N
2:47	60130	N
2:47	60448	N
2:48	60717	N
2:49	61027	N
2:50	61295	N
2:51	61592	N
2:51	61887	N
2:52	62192	N
2:53	62482	N
2:54	62794	N
2:55	63077	N
2:55	63359	N
2:56	63668	N
2:57	63957	N
2:58	64289	N
2:59	64599	N
3:00	64907	N
3:01	65206	N
3:01	65514	N
3:02	65817	N
3:03	66134	N
3:04	66424	N
3:05	66750	N
3:06	67058	N
3:07	67326	N
3:07	67648	N
3:08	67914	N
3:09	68220	N
3:10	68543	N
3:11	68843	N
3:12	69139	N
3:12	69435	N
3:13	69693	N
3:14	70004	N
3:15	70292	N
3:16	70591	N
3:16	70918	N
3:17	71206	N
3:18	71470	N
3:19	71780	N
3:20	72055	N
3:20	72340	N
3:21	72646	N
3:22	72940	N
3:23	73229	N
3:24	73543	N
3:25	73805	N
3:25	74113	N
3:26	74393	N
3:27	74662	N
3:28	75001	N
3:29	75333	N
3:30	75633	N
3:30	75919	N
3:31	76194	N
3:32	76481	N
3:33	76777	N
3:34	77083	N
3:34	77392	N
3:35	77662	N
3:36	77985	N
3:37	78260	N
3:38	78557	N
3:39	78874	N
3:39	79173	N
3:40	79502	N
3:41	79778	N
3:42	80105	N
3:43	80390	N
3:44	80666	N
3:44	80978	N
3:45	81259	N
3:46	81598	N
3:47	81904	N
3:48	82201	N
3:49	82462	N
3:49	82779	N
3:50	83075	N
3:51	83386	N
3:52	83695	N
3:53	84006	N
3:54	84267	N
3:54	84583	N
3:55	84853	N
3:56	85152	N
3:57	85453	N
3:58	85727	N
3:59	86062	N
3:59	86353	N
4:00	86630	N
4:01	86944	N
4:02	87213	N
4:03	87500	N
4:03	87826	N
4:04	88128	N
4:05	88395	N
4:06	88716	N
4:07	89017	N
4:08	89283	N
4:08	89590	N
4:09	89894	N
4:10	90199	N
4:11	90512	N
4:12	90794	N
4:12	91062	N
4:13	91377	N
4:14	91650	N
4:15	91946	N
4:16	92248	N
4:17	92548	N
4:17	92834	N
4:18	93100	N
4:19	93409	N
4:20	93675	N
4:21	93961	N
4:21	94261	N
4:22	94545	N
4:23	94856	N
4:24	95145	N
4:25	95421	N
4:25	95702	N
4:26	95970	N
4:27	96271	N
4:28	96570	N
4:29	96843	N
4:29	97158	N
4:30	97451	N
4:31	97717	N
4:32	98029	N
4:33	98301	N
4:33	98605	N
4:34	98910	N
4:35	99209	N
4:36	99487	N
4:37	99779	N
4:37	100069	N
4:38	100327	N
4:39	100657	N
4:40	100968	N
4:41	101250	N
4:42	101543	N
4:42	101827	N
4:43	102107	N
4:44	102392	N
4:45	102689	N
4:46	102988	N
4:46	103318	N
4:47	103584	N
4:48	103903	N
4:49	104191	N
4:50	104477	N
4:51	104793	N
4:51	105097	N
4:52	105388	N
4:53	105712	N
4:54	106014	N
4:55	106280	N
4:56	106594	N
4:56	106891	N
4:57	107191	N
4:58	107523	N
4:59	107793	N
5:00	108089	N
5:01	108400	N
5:01	108666	N
5:02	108972	N
5:03	109274	N
5:04	109551	N
5:05	109874	N
5:06	110163	N
5:06	110452	N
5:07	110738	N
5:08	110992	N
5:09	111307	N
5:10	111604	N
5:10	111899	N
5:11	112196	N
5:12	112484	N
5:13	112763	N
5:14	113048	N
5:14	113336	N
5:15	113617	N
5:16	113952	N
5:17	114235	N
5:18	114531	N
5:18	114820	N
5:19	115110	N
5:20	115370	N
5:21	115712	N
5:22	116041	N
5:23	116360	N
5:24	116679	N
5:24	116992	N
5:25	117291	N
5:26	117581	N
5:27	117893	N
5:28	118176	N
5:29	118520	N
5:30	118840	N
5:30	119140	N
5:31	119433	N
5:32	119728	N
5:33	120058	N
5:34	120375	N
5:35	120682	N
5:35	120945	N
5:36	121262	N
5:37	121569	N
5:38	121830	N
5:39	122148	N
5:40	122453	N
5:40	122749	N
5:41	123066	N
5:42	123362	N
5:43	123626	N
5:44	123935	N
5:45	124204	N
5:45	124545	N
5:46	124832	N
5:47	125156	N
5:48	125429	N
5:49	125736	N
5:50	126006	N
5:50	126300	N
5:51	126606	N
5:52	126890	N
5:53	127192	N
5:54	127477	N
5:54	127743	N
5:55	128053	N
5:56	128319	N
5:57	128615	N
5:58	128910	N
5:58	129202	N
5:59	129492	N
6:00	129777	N
6:01	130039	N
6:02	130349	N
6:02	130608	N
6:03	130914	N
6:04	131215	N
6:05	131512	N
6:06	131773	N
6:06	132092	N
6:07	132369	N
6:08	132625	N
6:09	132956	N
6:10	133251	N
6:10	133524	N
6:11	133842	N
6:12	134119	N
6:13	134386	N
6:14	134698	N
6:14	134974	N
6:15	135274	N
6:16	135566	N
6:17	135859	N
6:18	136154	N
6:19	136441	N
6:19	136736	N
6:20	136995	N
6:21	137299	N
6:22	137602	N
6:23	137887	N
6:23	138185	N
6:24	138472	N
6:25	138732	N
6:26	139047	N
6:27	139320	N
6:27	139649	N
6:28	139927	N
6:29	140220	N
6:30	140508	N
6:31	140791	N
6:31	141077	N
6:32	141333	N
6:33	141667	N
6:34	141975	N
6:35	142257	N
6:36	142574	N
6:36	142867	N
6:37	143132	N
6:38	143431	N
6:39	143729	N
6:40	144048	N
6:40	144328	N
6:41	144646	N
6:42	144933	N
6:43	145216	N
6:44	145491	N
6:45	145810	N
6:45	146103	N
6:46	146402	N
6:47	146715	N
6:48	146994	N
6:49	147287	N
6:49	147590	N
6:50	147861	N
6:51	148160	N
6:52	148486	N
6:53	148787	N
6:54	149060	N
6:54	149371	N
6:55	149653	N
6:56	149912	N
6:57	150242	N
6:58	150525	N
6:59	150854	N
6:59	151132	N
7:00	151425	N
7:01	151713	N
7:02	151979	N
7:03	152310	N
7:03	152636	N
7:04	152947	N
7:05	153251	N
7:06	153560	N
7:07	153865	N
7:08	154174	N
7:09	154481	N
7:09	154789	N
7:10	155109	N
7:11	155383	N
7:12	155718	N
7:13	156041	N
7:14	156340	N
7:15	156658	N
7:16	156983	N
7:16	157303	N
7:17	157606	N
7:18	157897	N
7:19	158192	N
7:20	158457	N
7:21	158778	N
7:21	159113	N
7:22	159424	N
7:23	159727	N
7:24	160000	N
7:25	160315	N
7:26	160578	N
7:26	160891	N
7:27	161179	N
7:28	161516	N
7:29	161790	N
7:30	162105	N
7:31	162379	N
7:31	162666	N
7:32	162950	N
7:33	163231	N
7:34	163565	N
7:35	163848	N
7:35	164126	N
7:36	164442	N
7:37	164730	N
7:38	165029	N
7:39	165309	N
7:40	165617	N
7:40	165905	N
7:41	166226	N
7:42	166498	N
7:43	166826	N
7:44	167086	N
7:45	167407	N
7:45	167693	N
7:46	168052	N
7:47	168370	N
7:48	168651	N
7:49	168947	N
7:50	169209	N
7:50	169538	N
7:51	169825	N
7:52	170159	N
7:53	170453	N
7:54	170746	N
7:55	171036	N
7:55	171344	N
7:56	171610	N
7:57	171920	N
7:58	172232	N
7:59	172505	N
8:00	172830	N
8:00	173100	N
8:01	173406	N
8:02	173683	N
8:03	173956	N
8:04	174294	N
8:04	174587	N
8:05	174858	N
8:06	175155	N
8:07	175438	N
8:08	175693	N
8:08	176008	N
8:09	176295	N
8:10	176592	N
8:11	176880	N
8:12	177151	N
8:12	177444	N
8:13	177703	N
8:14	177985	N
8:15	178270	N
8:16	178567	N
8:16	178870	N
8:17	179161	N
8:18	179434	N
8:19	179744	N
8:20	180012	N
8:20	180277	N
8:21	180617	N
8:22	180904	N
8:23	181205	N
8:24	181470	N
8:24	181790	N
8:25	182053	N
8:26	182334	N
8:27	182644	N
8:28	182943	N
8:28	183214	N
8:29	183531	N
8:30	183812	N
8:31	184095	N
8:32	184378	N
8:32	184660	N
8:33	184936	N
8:34	185265	N
8:35	185541	N
8:36	185841	N
8:37	186125	N
8:37	186386	N
8:38	186673	N
8:39	186975	N
8:40	187283	N
8:40	187559	N
8:41	187874	N
8:42	188149	N
8:43	188430	N
8:44	188723	N
8:44	188996	N
8:45	189323	N
8:46	189606	N
8:47	189891	N
8:48	190188	N
8:49	190481	N
8:49	190739	N
8:50	191053	N
8:51	191381	N
8:51	191462	~
8:52	191694	N
8:53	192000	N
8:53	192163	A
8:54	192545	N
8:55	192786	N
8:56	193204	N
8:57	193398	~
8:57	193564	N
8:58	193737	A
8:59	194134	N
8:59	194304	A
9:00	194652	N
9:01	194819	A
9:02	195187	N
9:02	195356	A
9:03	195713	N
9:03	195781	+
9:04	195883	N
9:04	196084	N
9:05	196256	N
9:05	196443	N
9:06	196629	N
9:06	196821	N
9:07	196974	N
9:07	197176	+
9:08	197353	j
9:09	197750	j
9:10	198154	j
9:11	198540	j
9:12	198914	j
9:13	199286	j
9:14	199511	+
9:14	199636	N
9:15	199946	N
9:16	200244	N
9:17	200554	N
9:17	200820	N
9:18	201120	N
9:19	201386	N
9:19	201552	A
9:21	201981	N
9:22	202348	N
9:23	202699	N
9:23	203016	N
9:24	203329	N
9:25	203588	N
9:26	203871	N
9:27	204133	N
9:28	204626	N
9:28	204820	A
9:30	205202	N
9:30	205366	A
9:31	205699	N
9:31	205750	+
9:31	205866	N
9:32	206059	N
9:32	206225	N
9:33	206526	N
9:33	206623	+
9:34	206697	N
9:34	206819	N
9:34	206991	N
9:35	207179	N
9:36	207410	N
9:36	207617	N
9:37	207793	N
9:37	207974	N
9:38	208157	N
9:38	208345	N
9:39	208511	N
9:39	208710	N
9:40	208905	N
9:40	209088	N
9:41	209419	N
9:42	209614	N
9:42	209773	N
9:43	209938	N
9:43	210115	N
9:44	210337	+
9:44	210456	N
9:45	210852	N
9:46	211268	N
9:48	211711	N
9:49	212164	N
9:50	212526	N
9:51	212851	N
9:52	213224	N
9:53	213528	N
9:53	213824	N
9:54	214123	N
9:55	214421	N
9:56	214701	N
9:57	215008	N
9:58	215292	N
9:58	215618	N
9:59	215899	N
10:00	216212	N
10:01	216485	N
10:02	216763	N
10:02	217072	N
10:03	217380	N
10:04	217692	N
10:05	217972	N
10:06	218284	N
10:07	218580	N
10:07	218844	N
10:08	219153	N
10:09	219468	N
10:10	219744	N
10:11	220069	N
10:11	220227	A
10:12	220614	N
10:13	220851	A
10:14	221224	N
10:15	221494	N
10:16	221836	N
10:16	222008	A
10:17	222393	N
10:18	222667	+
10:18	222793	N
10:19	222958	A
10:20	223335	j
10:20	223514	A
10:22	223926	N
10:22	224115	A
10:23	224460	N
10:23	224627	A
10:25	225004	N
10:25	225178	A
10:25	225271	+
10:26	225363	N
10:26	225576	N
10:27	225738	N
10:27	225906	N
10:27	226063	N
10:28	226202	N
10:28	226416	N
10:29	226477	+
10:29	226616	N
10:29	226764	N
10:30	226931	N
10:30	227103	N
10:31	227304	N
10:31	227487	N
10:32	227654	N
10:32	227848	N
10:33	228036	N
10:34	228288	N
10:34	228523	N
10:35	228732	N
10:36	229035	N
10:36	229215	N
10:37	229406	N
10:37	229600	N
10:38	229885	N
10:38	230022	+
10:39	230293	j
10:40	230684	j
10:41	231099	j
10:43	231514	j
10:44	231897	j
10:45	232286	j
10:46	232676	j
10:47	233043	j
10:47	233218	+
10:48	233356	N
10:49	233643	N
10:49	233916	N
10:50	234185	N
10:51	234482	N
10:52	234782	N
10:52	235067	N
10:53	235352	N
10:54	235630	N
10:55	235885	N
10:56	236191	N
10:56	236467	N
10:57	236761	N
10:58	237060	N
10:59	237334	N
11:00	237622	N
11:00	237916	N
11:01	238191	N
11:02	238461	N
11:03	238760	N
11:04	239061	N
11:04	239350	N
11:05	239661	N
11:06	239947	N
11:07	240224	N
11:08	240504	N
11:08	240768	N
11:09	241079	N
11:10	241382	N
11:11	241651	N
11:12	241961	N
11:12	242240	N
11:13	242494	N
11:14	242728	+
11:14	242796	N
11:14	242961	A
11:15	243351	N
11:16	243527	A
11:17	243854	N
11:17	244022	A
11:18	244387	N
11:19	244615	A
11:20	244960	N
11:20	245127	A
11:21	245486	N
11:22	245658	A
11:23	246029	N
11:24	246281	A
11:25	246655	N
11:25	246817	A
11:26	247162	N
11:27	247338	A
11:27	247618	+
11:28	247728	N
11:28	248021	N
11:29	248174	A
11:30	248566	N
11:31	248872	N
11:31	249035	A
11:32	249404	N
11:33	249656	N
11:33	249821	A
11:35	250232	N
11:35	250407	A
11:35	250517	+
11:36	250601	N
11:36	250841	N
11:37	251015	N
11:37	251199	N
11:38	251369	N
11:38	251409	+
11:38	251530	N
11:39	251847	N
11:40	252012	N
11:40	252215	N
11:41	252392	N
11:41	252578	N
11:42	252759	N
11:42	252929	N
11:43	253087	N
11:43	253243	N
11:43	253418	N
11:44	253602	N
11:45	253897	+
11:45	253991	N
11:46	254375	j
11:47	254828	j
11:49	255289	N
11:50	255724	j
11:51	256057	+
11:51	256142	N
11:52	256481	N
11:52	256651	A
11:54	257059	N
11:54	257228	A
11:55	257625	N
11:55	257703	+
11:56	257793	A
11:56	257968	A
11:57	258160	A
11:57	258467	+
11:58	258566	N
11:58	258740	A
11:59	259176	N
12:00	259348	A
12:00	259507	+
12:01	259596	N
12:01	259747	N
12:02	259940	N
12:02	260156	N
12:02	260255	+
12:03	260434	N
12:04	260686	N
12:04	260913	N
12:05	261106	N
12:05	261276	N
12:06	261489	N
12:06	261719	N
12:07	261880	N
12:07	262078	N
12:08	262242	N
12:08	262409	N
12:09	262603	N
12:09	262788	N
12:10	262966	N
12:11	263160	N
12:11	263328	N
12:11	263501	N
12:12	263681	N
12:12	263835	N
12:13	264015	N
12:13	264200	N
12:14	264378	N
12:15	264687	N
12:15	264884	N
12:16	265143	N
12:17	265369	N
12:17	265567	N
12:18	265829	+
12:18	265946	N
12:19	266353	N
12:20	266681	+
12:21	266806	j
12:22	267253	j
12:22	267429	A
12:23	267830	N
12:25	268244	j
12:26	268629	j
12:27	269014	j
12:27	269187	A
12:28	269565	j
12:29	269930	j
12:30	270282	N
12:31	270440	A
12:32	270757	j
12:32	270956	A
12:33	271103	A
12:34	271459	N
12:34	271630	A
12:34	271699	+
12:34	271773	N
12:35	271898	N
12:35	272040	N
12:36	272221	N
12:36	272404	N
12:37	272539	N
12:37	272687	N
12:37	272845	N
12:38	273005	N
12:38	273182	N
12:39	273376	N
12:39	273546	N
12:40	273709	+
12:41	274007	j
12:42	274343	j
12:43	274734	j
12:44	275149	j
12:45	275587	j
12:46	276018	j
12:47	276208	A
12:48	276498	N
12:48	276658	A
12:49	277031	j
12:50	277407	j
12:51	277585	A
12:51	277876	+
12:52	277993	N
12:52	278171	N
12:53	278316	N
12:53	278463	N
12:53	278593	N
12:54	278731	N
12:54	278860	N
12:55	279001	N
12:55	279148	N
12:56	279419	+
12:56	279516	j
12:57	279909	j
12:58	280291	j
12:59	280658	j
13:00	280876	+
13:00	280985	N
13:01	281276	N
13:02	281553	N
13:02	281835	N
13:03	282134	N
13:04	282433	N
13:05	282724	N
13:06	283021	N
13:06	283295	N
13:07	283576	N
13:08	283861	N
13:09	284154	N
13:10	284466	N
13:11	284774	N
13:11	285042	N
13:12	285360	N
13:13	285518	A
13:14	285919	N
13:14	286089	A
13:15	286376	j
13:16	286843	j
13:17	287032	A
13:18	287516	j
13:19	287762	A
13:20	288058	j
13:21	288513	N
13:21	288698	A
13:22	288813	+
13:22	288949	N
13:23	289107	N
13:23	289315	N
13:24	289546	N
13:24	289764	N
13:25	289939	N
13:25	290113	N
13:26	290324	N
13:26	290514	N
13:27	290695	N
13:28	290901	+
13:28	291083	j
13:29	291455	j
13:30	291813	j
13:31	292162	j
13:32	292496	j
13:33	292846	j
13:34	293115	+
13:34	293198	N
13:35	293493	N
13:36	293782	N
13:36	294066	N
13:37	294360	N
13:38	294628	N
13:39	294925	N
13:40	295253	N
13:40	295544	N
13:41	295838	N
13:42	296131	N
13:43	296423	N
13:44	296705	N
13:45	297029	N
13:45	297346	N
13:46	297636	N
13:47	297965	N
13:48	298129	A
13:48	298250	+
13:48	298374	N
13:49	298525	N
13:49	298692	N
13:49	298721	+
13:50	298872	N
13:50	299034	N
13:51	299201	N
13:51	299363	N
13:52	299561	N
13:52	299799	+
13:53	300002	j
13:54	300367	j
13:55	300754	j
13:56	301122	j
13:57	301514	j
13:58	301813	+
13:58	301900	N
13:59	302067	A
14:00	302411	j
14:00	302600	A
14:01	302852	N
14:02	303195	j
14:03	303549	j
14:04	303904	j
14:04	304102	A
14:04	304196	+
14:05	304240	N
14:05	304443	N
14:06	304610	N
14:06	304784	N
14:06	304908	+
14:07	305141	j
14:08	305494	j
14:09	305733	+
14:09	305833	N
14:10	306146	N
14:11	306452	N
14:12	306725	N
14:12	307007	N
14:13	307283	N
14:14	307549	N
14:15	307827	N
14:15	308137	N
14:16	308435	N
14:17	308697	N
14:18	309010	N
14:19	309287	N
14:19	309546	N
14:20	309870	N
14:21	310038	A
14:22	310454	j
14:22	310633	A
14:23	310786	A
14:24	311112	N
14:24	311274	A
14:25	311493	A
14:25	311699	J
14:26	312011	N
14:27	312178	A
14:27	312335	+
14:27	312410	N
14:28	312591	N
14:28	312645	+
14:28	312752	N
14:29	312925	N
14:29	313084	N
14:30	313253	N
14:30	313544	+
14:31	313632	j
14:32	313957	j
14:33	314381	j
14:34	314839	N
14:35	315011	A
14:36	315467	j
14:36	315673	A
14:37	315870	A
14:38	316287	N
14:39	316469	A
14:39	316617	+
14:39	316720	N
14:40	316882	N
14:40	317049	+
14:40	317105	N
14:41	317264	N
14:41	317430	N
14:42	317576	N
14:42	317718	N
14:42	317863	N
14:43	318127	N
14:44	318271	N
14:44	318491	N
14:45	318703	N
14:45	318948	N
14:46	319245	+
14:47	319393	j
14:48	319802	j
14:49	320173	j
14:50	320526	j
14:50	320697	A
14:51	321068	j
14:52	321429	j
14:53	321758	N
14:54	322094	j
14:55	322331	+
14:55	322414	N
14:56	322688	N
14:57	322996	N
14:57	323279	N
14:58	323570	N
14:59	323856	N
15:00	324144	N
15:01	324412	N
15:01	324688	N
15:02	324963	N
15:03	325239	N
15:04	325555	N
15:04	325721	A
15:05	326114	N
15:06	326291	A
15:07	326529	j
15:07	326845	N
15:08	326999	A
15:08	327133	+
15:08	327238	N
15:09	327400	N
15:09	327544	N
15:10	327686	N
15:10	327863	+
15:10	327947	N
15:11	328303	N
15:12	328667	N
15:13	328973	N
15:14	329290	N
15:15	329614	N
15:16	329956	N
15:17	330264	N
15:18	330578	N
15:19	330882	N
15:19	331177	N
15:20	331476	N
15:21	331754	N
15:22	331925	A
15:23	332334	N
15:24	332709	N
15:24	332870	A
15:25	333021	+
15:25	333116	N
15:25	333279	N
15:26	333416	N
15:26	333603	N
15:27	333752	N
15:27	333965	N
15:28	334142	N
15:28	334317	N
15:29	334484	N
15:29	334707	N
15:30	334849	N
15:30	335119	N
15:31	335312	N
15:31	335519	N
15:32	335795	N
15:33	335977	N
15:33	336150	N
15:34	336461	N
15:35	336673	N
15:35	336889	N
15:36	337090	N
15:36	337225	+
15:37	337454	j
15:38	337819	j
15:39	338198	j
15:40	338647	j
15:41	339050	j
15:42	339432	j
15:43	339698	+
15:43	339803	N
15:44	340165	N
15:45	340465	N
15:46	340769	N
15:47	341050	N
15:48	341379	N
15:49	341656	N
15:49	341939	N
15:50	342221	N
15:51	342514	N
15:52	342802	N
15:53	343241	N
15:54	343676	j
15:55	344046	N
15:56	344206	A
15:57	344611	j
15:57	344707	+
15:57	344789	N
15:58	344925	N
15:58	345060	+
15:58	345144	N
15:59	345314	N
15:59	345493	N
16:00	345657	N
16:00	345815	N
16:01	345979	N
16:01	346134	N
16:01	346295	N
16:02	346473	N
16:03	346715	N
16:03	346896	N
16:04	347056	+
16:04	347389	j
16:06	347790	j
16:07	348200	j
16:08	348638	N
16:08	348808	A
16:09	348977	+
16:09	349055	N
16:10	349266	N
16:10	349450	N
16:11	349629	N
16:11	349888	N
16:12	350227	N
16:13	350425	N
16:13	350613	N
16:14	350822	N
16:14	350977	N
16:15	351205	N
16:16	351406	N
16:16	351620	N
16:17	351841	N
16:17	352008	N
16:18	352229	N
16:18	352405	N
16:19	352611	N
16:20	352830	N
16:20	352960	+
16:20	353054	N
16:21	353291	N
16:21	353446	N
16:22	353631	N
16:22	353868	N
16:23	354055	N
16:24	354273	N
16:24	354535	N
16:25	354706	N
16:25	354911	N
16:26	355068	N
16:26	355313	N
16:28	355750	N
16:28	356003	N
16:29	356212	N
16:29	356397	N
16:30	356580	+
16:30	356684	N
16:31	356973	N
16:32	357167	N
16:32	357285	+
16:32	357420	N
16:33	357622	N
16:34	357923	N
16:34	358186	N
16:35	358423	N
16:36	358694	N
16:36	358895	N
16:37	359123	N
16:38	359357	N
16:38	359614	N
16:39	359816	N
16:40	360029	N
16:40	360337	N
16:41	360557	N
16:42	360743	N
16:42	360892	N
16:42	361040	N
16:43	361173	N
16:43	361382	N
16:44	361558	N
16:45	361824	N
16:45	362032	N
16:46	362204	N
16:46	362369	N
16:46	362519	N
16:47	362677	N
16:47	362769	+
16:47	362856	N
16:48	363078	N
16:48	363235	+
16:49	363332	N
16:49	363560	N
16:50	363827	N
16:50	363932	+
16:51	364092	N
16:51	364309	N
16:52	364469	N
16:52	364623	N
16:53	364761	N
16:53	364982	N
16:54	365299	N
16:55	365458	N
16:55	365680	N
16:56	365908	N
16:56	366095	N
16:57	366350	N
16:58	366542	N
16:58	366790	N
16:59	367000	N
17:00	367256	N
17:00	367543	N
17:01	367794	N
17:02	367965	N
17:02	368191	N
17:03	368389	N
17:03	368586	N
17:04	368812	N
17:05	369020	N
17:05	369318	N
17:06	369495	N
17:06	369638	N
17:07	369931	N
17:08	370088	N
17:08	370225	N
17:09	370521	N
17:09	370778	N
17:10	370936	N
17:10	371088	N
17:11	371258	N
17:11	371423	N
17:12	371569	N
17:12	371793	N
17:13	371971	N
17:13	372157	N
17:14	372372	N
17:14	372535	N
17:15	372682	N
17:15	372938	N
17:16	373093	N
17:16	373147	+
17:17	373356	N
17:17	373562	N
17:18	373752	N
17:18	373900	N
17:19	374051	N
17:19	374314	N
17:20	374542	N
17:21	374783	N
17:21	375091	N
17:22	375314	+
17:22	375395	N
17:23	375582	N
17:23	375784	+
17:24	375877	N
17:24	376098	N
17:25	376278	N
17:25	376492	N
17:26	376668	N
17:26	376811	N
17:27	376959	N
17:28	377301	N
17:28	377552	N
17:29	377717	N
17:29	377990	N
17:30	378249	N
17:31	378485	N
17:31	378558	+
17:31	378629	N
17:32	378775	N
17:32	379044	N
17:33	379225	N
17:33	379397	N
17:34	379624	N
17:35	379983	N
17:36	380219	N
17:36	380455	N
17:37	380610	N
17:37	380822	N
17:38	380961	N
17:39	381249	N
17:39	381538	N
17:40	381715	N
17:40	381865	N
17:41	382052	N
17:41	382261	N
17:42	382424	N
17:42	382654	N
17:43	382698	+
17:43	382865	N
17:44	383133	N
17:44	383394	N
17:45	383624	N
17:46	383777	N
17:46	383913	N
17:46	384111	N
17:47	384255	N
17:47	384404	N
17:48	384662	N
17:49	384922	N
17:49	385128	N
17:50	385282	N
17:50	385504	N
17:51	385672	N
17:51	385821	N
17:52	385975	N
17:52	386234	N
17:53	386410	N
17:54	386642	N
17:54	386903	N
17:55	387105	N
17:55	387297	+
17:56	387558	j
17:57	388016	j
17:58	388209	A
17:59	388538	N
18:00	388938	j
18:00	389114	A
18:02	389525	j
18:02	389690	A
18:03	390142	j
18:04	390317	A
18:05	390751	j
18:06	391166	j
18:07	391543	j
18:08	391904	j
18:09	392062	A
18:09	392326	+
18:10	392428	N
18:11	392794	N
18:11	393063	N
18:12	393363	N
18:13	393629	N
18:14	393902	N
18:14	394188	N
18:15	394476	N
18:16	394782	N
18:17	395086	N
18:18	395366	N
18:19	395644	N
18:19	395950	N
18:20	396224	N
18:21	396522	N
18:22	396830	N
18:23	397119	N
18:23	397411	N
18:24	397706	N
18:25	397956	N
18:26	398258	N
18:27	398536	N
18:27	398838	N
18:28	399133	N
18:29	399440	N
18:30	399720	N
18:31	400003	N
18:31	400264	N
18:32	400572	N
18:33	400860	N
18:34	401152	N
18:35	401453	N
18:35	401748	N
18:36	402017	N
18:37	402325	N
18:38	402595	N
18:39	402898	N
18:39	403170	N
18:40	403328	A
18:41	403766	j
18:42	403942	A
18:43	404322	N
18:43	404553	N
18:44	404891	N
18:45	405157	N
18:45	405312	A
18:46	405716	N
18:47	405972	N
18:48	406286	N
18:49	406578	N
18:50	406876	N
18:50	407027	A
18:51	407413	N
18:52	407587	A
18:53	407944	N
18:54	408262	N
18:54	408559	N
18:55	408856	N
18:56	409141	N
18:57	409457	N
18:58	409771	N
18:59	410084	N
18:59	410361	N
19:00	410666	N
19:01	410926	N
19:02	411231	N
19:03	411498	N
19:04	411982	N
19:05	412372	N
19:05	412537	A
19:06	412899	N
19:07	413216	N
19:08	413505	N
19:09	413668	A
19:10	414055	N
19:10	414303	N
19:11	414703	N
19:12	414970	+
19:12	415050	N
19:13	415205	A
19:14	415575	N
19:14	415748	A
19:15	416116	N
19:16	416297	A
19:17	416659	N
19:17	416827	A
19:18	417207	j
19:19	417432	A
19:20	417837	N
19:21	418113	A
19:22	418559	N
19:23	418738	A
19:24	419093	N
19:24	419263	A
19:25	419634	N
19:26	419800	A
19:27	420151	N
19:27	420325	A
19:28	420719	N
19:29	420889	A
19:30	421268	N
19:30	421440	A
19:31	421788	N
19:32	421947	A
19:33	422329	N
19:33	422508	A
19:34	422875	N
19:35	423048	A
19:35	423299	j
19:36	423715	j
19:38	424106	j
19:38	424317	A
19:39	424480	A
19:40	424830	N
19:40	425009	A
19:41	425348	N
19:42	425524	A
19:43	425886	j
19:43	426057	A
19:44	426399	N
19:44	426574	A
19:45	426935	j
19:46	427157	A
19:47	427515	j
19:48	427742	A
19:49	428082	j
19:49	428255	A
19:50	428574	j
19:51	428770	A
19:52	429120	j
19:52	429344	A
19:53	429490	A
19:53	429799	j
19:54	430003	A
19:55	430314	j
19:55	430526	A
19:56	430850	j
19:57	431050	A
19:58	431396	j
19:58	431605	A
19:59	431945	j
20:00	432146	A
20:01	432479	j
20:01	432664	A
20:02	432990	j
20:03	433189	A
20:03	433333	A
20:04	433675	j
20:05	433884	A
20:06	434225	j
20:06	434393	A
20:07	434726	j
20:08	434909	A
20:09	435280	j
20:09	435458	A
20:10	435849	N
20:11	436015	A
20:12	436379	N
20:12	436553	A
20:13	436896	N
20:14	437054	A
20:15	437422	N
20:15	437597	A
20:16	437972	N
20:17	438141	A
20:18	438510	N
20:18	438676	A
20:19	439037	N
20:19	439196	A
20:20	439260	+
20:20	439312	N
20:21	439563	N
20:21	439732	N
20:22	439942	N
20:22	440127	N
20:23	440430	N
20:23	440599	N
20:24	440734	N
20:25	441004	N
20:25	441201	N
20:26	441360	N
20:26	441522	N
20:26	441699	N
20:27	441924	+
20:28	442080	j
20:28	442414	j
20:29	442798	j
20:31	443201	j
20:32	443603	j
20:33	444011	j
20:33	444234	A
20:35	444652	N
20:35	444824	A
20:36	445010	A
20:37	445415	N
20:37	445576	A
20:38	445768	A
20:39	446172	N
20:39	446341	A
20:40	446482	+
20:40	446602	N
20:41	446765	N
20:41	446936	N
20:41	447084	N
20:42	447237	N
20:42	447399	N
20:43	447556	N
20:43	447708	N
20:44	447891	N
20:44	448146	+
20:45	448379	j
20:46	448740	j
20:47	449219	j
20:48	449559	+
20:49	449690	N
20:49	449855	A
20:50	450046	A
20:51	450503	N
20:51	450683	A
20:52	450949	j
20:53	451355	N
20:54	451526	A
20:54	451775	A
20:55	452151	N
20:56	452310	A
20:56	452489	+
20:57	452580	N
20:57	452775	N
20:58	452997	N
20:58	453151	N
20:59	453302	N
20:59	453452	N
21:00	453693	N
21:00	453872	N
21:01	454021	N
21:01	454220	N
21:02	454371	N
21:02	454527	N
21:03	454696	N
21:03	454746	~
21:03	454834	+
21:04	455156	j
21:05	455560	j
21:06	455983	j
21:07	456378	j
21:08	456755	j
21:09	457138	j
21:10	457518	j
21:11	457717	A
21:12	458056	j
21:12	458261	A
21:13	458396	A
21:13	458598	A
21:14	458922	j
21:15	459263	j
21:16	459379	+
21:16	459480	N
21:16	459630	N
21:17	459770	N
21:17	459953	N
21:18	460130	N
21:18	460256	~
21:18	460307	N
21:19	460494	N
21:19	460656	N
21:20	460826	N
21:20	460953	N
21:20	461107	N
21:21	461280	+
21:21	461330	j
21:22	461609	j
21:23	461913	j
21:23	461975	~
21:24	462241	j
21:24	462568	j
21:25	462854	j
21:26	463000	A
21:26	463151	A
21:27	463383	N
21:27	463623	N
21:28	463776	A
21:28	464031	N
21:29	464358	j
21:30	464679	j
21:31	464800	+
21:31	464983	N
21:32	465255	N
21:33	465546	N
21:33	465830	N
21:34	466122	N
21:35	466208	+
21:35	466274	A
21:35	466404	A
21:35	466559	A
21:36	466731	A
21:36	466895	+
21:37	467040	j
21:38	467368	j
21:39	467704	j
21:40	468039	j
21:40	468338	N
21:41	468482	A
21:41	468616	A
21:42	468726	~
21:42	468962	j
21:43	469227	+
21:43	469272	N
21:43	469422	A
21:44	469540	A
21:44	469702	A
21:45	469853	+
21:45	469983	N
21:46	470272	N
21:47	470587	N
21:47	470858	N
21:48	471134	N
21:49	471410	N
21:50	471664	N
21:50	471955	N
21:51	472118	A
21:52	472534	j
21:53	472703	A
21:53	472958	N
21:54	473116	A
21:54	473256	A
21:55	473624	N
21:56	473782	A
21:56	473965	A
21:57	474342	N
21:58	474511	A
21:58	474711	A
21:59	475093	j
22:00	475291	A
22:01	475666	j
22:01	475907	A
22:02	476046	A
22:03	476344	+
22:03	476419	j
22:03	476603	A
22:04	476740	A
22:04	476923	A
22:05	477102	A
22:05	477202	+
22:06	477411	N
22:06	477717	N
22:07	477994	N
22:08	478317	N
22:09	478478	A
22:09	478549	+
22:09	478623	N
22:09	478771	N
22:10	478959	N
22:11	479179	N
22:11	479312	N
22:11	479407	+
22:11	479479	N
22:12	479732	N
22:13	479887	N
22:13	480041	N
22:13	480158	+
22:14	480349	j
22:15	480690	j
22:16	481064	j
22:16	481300	+
22:17	481409	N
22:18	481741	N
22:19	482097	N
22:19	482397	N
22:20	482546	A
22:20	482690	N
22:21	482830	N
22:21	482865	+
22:21	483015	N
22:22	483224	N
22:22	483478	N
22:23	483648	N
22:23	483833	N
22:24	484009	N
22:24	484161	N
22:25	484322	N
22:25	484476	N
22:26	484568	+
22:26	484831	N
22:27	485185	j
22:28	485593	j
22:29	485942	N
22:31	486383	N
22:32	486815	N
22:32	486979	A
22:33	487405	j
22:34	487589	A
22:35	487900	N
22:35	488062	A
22:36	488178	+
22:36	488284	N
22:36	488452	N
22:37	488618	N
22:37	488769	N
22:38	488910	N
22:38	489200	N
22:39	489471	N
22:40	489664	N
22:40	489819	N
22:41	489990	N
22:41	490090	~
22:41	490136	+
22:42	490415	j
22:43	490738	j
22:44	491111	j
22:44	491234	~
22:45	491567	j
22:46	492024	j
22:47	492435	N
22:48	492604	A
22:49	492978	j
22:49	493145	A
22:50	493416	N
22:51	493581	A
22:51	493713	+
22:51	493847	N
22:52	494044	N
22:52	494228	N
22:53	494322	+
22:53	494375	N
22:53	494603	N
22:54	494818	N
22:54	494988	N
22:55	495179	N
22:55	495342	N
22:56	495540	N
22:56	495684	N
22:57	495815	+
22:57	496060	j
22:58	496426	j
22:59	496710	+
22:59	496782	N
23:01	497219	N
23:02	497668	N
23:03	498048	N
23:03	498217	A
23:04	498369	+
23:04	498442	N
23:05	498605	N
23:05	498760	N
23:05	498922	N
23:06	499087	N
23:06	499245	N
23:07	499472	N
23:07	499679	N
23:08	499849	N
23:08	500008	+
23:09	500248	N
23:10	500631	j
23:11	501101	N
23:13	501550	N
23:14	501912	N
23:15	502243	N
23:16	502619	N
23:16	502784	A
23:17	503197	N
23:18	503559	N
23:19	503718	A
23:19	503841	+
23:19	503958	N
23:20	504101	N
23:20	504300	N
23:21	504452	N
23:21	504620	+
23:22	504873	N
23:23	505204	N
23:24	505525	N
23:25	505827	N
23:25	506120	N
23:26	506419	N
23:27	506725	N
23:28	507025	N
23:29	507300	N
23:30	507613	N
23:30	507766	A
23:31	508154	j
23:32	508540	N
23:33	508712	A
23:33	508782	+
23:33	508962	N
23:34	509120	N
23:34	509317	N
23:35	509499	N
23:35	509681	N
23:36	509894	N
23:36	510017	+
23:37	510246	j
23:38	510602	j
23:38	510806	+
23:39	510986	N
23:40	511284	N
23:41	511578	N
23:41	511880	N
23:42	512165	N
23:43	512439	N
23:44	512706	N
23:45	513017	N
23:45	513321	N
23:46	513601	N
23:47	513921	N
23:47	514079	A
23:48	514335	A
23:50	514825	N
23:50	515089	A
23:52	515531	N
23:52	515708	A
23:53	515959	j
23:54	516386	j
23:55	516741	N
23:55	516898	A
23:56	516993	+
23:56	517111	N
23:56	517268	N
23:57	517473	N
23:57	517574	+
23:58	517702	j
23:58	518013	N
24:00	518433	j
24:01	518845	j
24:01	519021	A
24:02	519278	j
24:03	519720	j
24:04	520148	j
24:05	520257	+
24:05	520352	N
24:05	520504	N
24:06	520662	N
24:06	520853	+
24:07	521023	N
24:08	521423	j
24:08	521610	A
24:09	521815	A
24:10	522222	N
24:11	522393	A
24:11	522494	+
24:11	522575	N
24:12	522799	N
24:12	522964	N
24:13	523109	N
24:13	523253	N
24:13	523397	N
24:14	523629	N
24:14	523776	+
24:15	524122	j
24:17	524587	j
24:18	525021	j
24:19	525415	j
24:20	525620	A
24:20	525772	A
24:21	526146	N
24:22	526324	A
24:23	526718	j
24:23	526850	+
24:23	526948	N
24:24	527100	N
24:24	527301	N
24:25	527468	N
24:25	527675	N
24:26	527809	N
24:26	527966	N
24:26	528104	N
24:27	528368	N
24:28	528572	+
24:28	528782	N
24:29	529174	j
24:30	529338	A
24:30	529429	+
24:31	529591	N
24:31	529740	N
24:32	529927	N
24:32	530119	+
24:33	530372	j
24:34	530794	j
24:35	531216	j
24:36	531602	j
24:37	531975	j
24:38	532335	j
24:39	532677	N
24:40	532843	A
24:40	532908	+
24:40	532979	N
24:41	533168	N
24:41	533364	N
24:42	533531	N
24:42	533728	N
24:43	533901	N
24:43	534060	N
24:43	534237	N
24:44	534433	N
24:44	534527	~
24:45	534612	N
24:45	534772	+
24:45	534930	j
24:46	535282	j
24:47	535654	j
24:48	535755	~
24:48	535805	+
24:48	535987	N
24:49	536316	N
24:50	536616	N
24:51	536921	N
24:52	537229	N
24:52	537458	~
24:53	537521	N
24:54	537862	N
24:54	538137	N
24:55	538420	N
24:56	538696	N
24:57	538990	N
24:57	539153	A
24:58	539283	A
24:58	539384	+
24:58	539457	N
24:58	539595	N
24:59	539727	N
24:59	539926	N
25:00	540159	N
25:00	540344	N
25:01	540512	N
25:02	540739	N
25:02	540908	N
25:02	541048	N
25:03	541241	N
25:03	541387	N
25:04	541608	N
25:05	541817	N
25:05	541976	N
25:06	542278	N
25:06	542452	N
25:07	542651	N
25:07	542853	N
25:08	542981	N
25:08	543101	+
25:09	543341	j
25:10	543713	j
25:11	544063	j
25:12	544409	j
25:12	544605	+
25:13	544740	N
25:13	545012	N
25:14	545286	N
25:15	545569	N
25:16	545848	N
25:17	546126	N
25:17	546397	N
25:18	546662	N
25:19	546917	N
25:19	547181	N
25:20	547438	N
25:21	547721	N
25:22	547996	N
25:23	548281	N
25:23	548556	N
25:24	548829	N
25:25	549093	N
25:25	549355	N
25:26	549637	N
25:27	549928	N
25:28	550212	N
25:29	550498	N
25:29	550778	N
25:30	551032	N
25:31	551340	N
25:32	551610	N
25:33	551883	N
25:33	552184	N
25:34	552475	N
25:35	552628	A
25:35	552709	+
25:35	552875	N
25:36	553029	N
25:36	553170	N
25:37	553325	N
25:37	553490	N
25:37	553679	N
25:38	553831	N
25:38	553988	N
25:39	554178	N
25:39	554375	N
25:40	554542	N
25:40	554723	N
25:41	554858	N
25:41	555012	N
25:42	555169	N
25:42	555326	N
25:43	555487	N
25:43	555652	N
25:44	555860	N
25:44	556102	N
25:45	556284	N
25:45	556499	+
25:46	556760	j
25:47	557094	j
25:48	557504	j
25:49	557962	j
25:51	558413	j
25:51	558688	+
25:52	558812	N
25:53	559149	N
25:54	559497	N
25:54	559778	N
25:55	560049	N
25:56	560313	N
25:57	560604	N
25:58	560891	N
25:58	561207	N
25:59	561506	N
26:00	561768	N
26:01	562053	N
26:02	562339	N
26:02	562625	N
26:03	562928	N
26:04	563234	N
26:05	563521	N
26:06	563794	N
26:06	564110	N
26:07	564391	N
26:08	564671	N
26:09	564978	N
26:09	565137	A
26:10	565269	+
26:10	565356	N
26:10	565525	N
26:11	565679	N
26:11	565852	N
26:12	566000	N
26:12	566146	N
26:13	566289	N
26:13	566450	N
26:13	566596	N
26:14	566755	N
26:14	566916	N
26:15	567078	N
26:15	567244	N
26:16	567413	N
26:16	567592	N
26:17	567752	N
26:17	567874	+
26:17	567941	j
26:18	568254	j
26:19	568661	j
26:20	569109	j
26:22	569591	N
26:23	570044	j
26:24	570294	+
26:24	570427	N
26:25	570746	N
26:25	570901	A
26:26	571025	+
26:26	571102	N
26:26	571274	N
26:27	571417	N
26:27	571628	N
26:28	571803	+
26:29	572054	j
26:30	572454	j
26:31	572834	j
26:32	573201	j
26:33	573575	j
26:34	573945	N
26:35	574253	N
26:35	574405	A
26:35	574547	A
26:36	574892	N
26:37	575191	N
26:38	575339	A
26:38	575390	+
26:38	575470	N
26:38	575610	N
26:39	575778	N
26:39	575984	N
26:40	576179	N
26:41	576406	N
26:41	576554	N
26:42	576764	N
26:42	577025	N
26:43	577226	N
26:43	577403	N
26:44	577534	N
26:44	577688	N
26:45	577948	N
26:46	578166	N
26:46	578333	+
26:46	578481	N
26:47	578626	N
26:47	578755	N
26:48	578898	N
26:48	579040	N
26:48	579185	N
26:49	579349	N
26:49	579585	N
26:50	579766	N
26:50	579935	N
26:51	580132	N
26:52	580381	N
26:52	580580	N
26:53	580737	N
26:53	580884	N
26:53	581033	N
26:54	581232	N
26:55	581466	N
26:55	581671	N
26:56	581853	N
26:56	582066	N
26:57	582300	N
26:58	582599	N
26:59	582845	N
26:59	582985	N
27:00	583219	N
27:00	583422	N
27:01	583656	N
27:01	583789	+
27:01	583916	N
27:02	584113	N
27:03	584297	N
27:03	584581	N
27:04	584785	N
27:04	584890	+
27:05	585000	N
27:05	585212	N
27:06	585431	N
27:06	585692	N
27:07	585862	N
27:08	586119	N
27:08	586310	N
27:09	586562	N
27:10	586932	N
27:10	587117	N
27:11	587254	N
27:11	587390	N
27:12	587608	N
27:12	587820	N
27:13	588072	N
27:14	588360	N
27:14	588594	N
27:15	588846	N
27:16	589009	N
27:16	589239	N
27:17	589458	N
27:18	589709	N
27:18	589942	N
27:19	590105	N
27:19	590283	N
27:20	590456	N
27:20	590704	N
27:21	590964	N
27:22	591184	N
27:22	591373	N
27:23	591628	N
27:24	591890	N
27:25	592225	N
27:25	592461	N
27:26	592619	N
27:26	592779	N
27:27	593083	N
27:28	593300	N
27:28	593442	N
27:28	593573	N
27:29	593702	N
27:29	593953	N
27:30	594206	N
27:30	594349	N
27:31	594550	N
27:32	594766	N
27:32	594940	N
27:33	595096	N
27:33	595252	N
27:33	595365	+
27:33	595417	N
27:34	595650	N
27:35	595829	N
27:35	596050	N
27:36	596263	N
27:36	596489	N
27:37	596606	+
27:37	596737	N
27:38	596915	N
27:38	597079	N
27:39	597272	N
27:39	597431	N
27:39	597599	+
27:40	597713	N
27:40	597904	N
27:41	598044	N
27:41	598210	N
27:42	598505	N
27:42	598542	+
27:43	598788	N
27:43	599022	N
27:44	599197	N
27:45	599471	N
27:45	599629	N
27:46	599883	N
27:46	600090	N
27:47	600268	N
27:48	600569	N
27:49	600862	N
27:49	601064	N
27:49	601197	N
27:50	601480	N
27:51	601730	N
27:52	601946	N
27:52	602242	N
27:53	602419	N
27:54	602694	N
27:54	602922	N
27:55	603088	N
27:55	603317	N
27:56	603465	N
27:57	603729	N
27:57	603909	N
27:58	604104	N
27:58	604398	N
27:59	604702	N
28:00	604899	N
28:00	605072	N
28:01	605373	N
28:02	605536	N
28:02	605746	N
28:03	605957	N
28:03	606155	N
28:04	606314	N
28:04	606596	N
28:05	606773	N
28:06	607031	N
28:06	607228	N
28:07	607431	N
28:07	607644	N
28:08	607890	N
28:09	608089	N
28:09	608258	N
28:10	608538	N
28:10	608723	N
28:11	608882	N
28:11	609036	N
28:12	609271	N
28:13	609519	N
28:13	609801	N
28:14	609988	N
28:14	610150	N
28:15	610345	N
28:16	610603	N
28:16	610813	N
28:17	611055	N
28:18	611342	N
28:18	611502	N
28:19	611704	N
28:19	611930	N
28:20	612082	N
28:20	612234	N
28:21	612520	N
28:22	612766	N
28:22	612922	N
28:23	613219	N
28:23	613436	N
28:24	613576	N
28:24	613798	N
28:25	613964	N
28:26	614181	N
28:26	614406	N
28:27	614615	N
28:27	614872	N
28:28	615042	N
28:29	615299	N
28:29	615454	N
28:30	615651	N
28:30	615790	N
28:30	615920	N
28:31	616117	N
28:32	616418	N
28:33	616701	N
28:33	616988	N
28:34	617305	N
28:35	617515	N
28:36	617773	N
28:36	617947	N
28:36	618098	N
28:37	618352	N
28:38	618524	N
28:38	618672	N
28:38	618815	N
28:39	619043	N
28:40	619341	N
28:40	619511	N
28:41	619747	N
28:42	619935	N
28:42	620080	N
28:43	620288	N
28:43	620512	N
28:44	620667	N
28:44	620949	N
28:45	621113	N
28:46	621401	N
28:46	621584	N
28:47	621757	N
28:47	621898	N
28:48	622095	N
28:48	622267	N
28:49	622524	N
28:49	622769	N
28:50	623035	N
28:51	623265	N
28:51	623498	N
28:52	623815	N
28:53	623984	N
28:53	624218	N
28:54	624444	N
28:54	624589	N
28:55	624839	N
28:56	625130	N
28:57	625349	N
28:57	625493	N
28:58	625751	N
28:58	625920	N
28:59	626207	N
28:59	626355	N
29:00	626494	N
29:00	626718	N
29:01	626958	N
29:02	627290	N
29:03	627524	N
29:03	627750	N
29:04	627950	N
29:04	628154	N
29:05	628425	N
29:06	628682	N
29:06	628872	N
29:07	629106	N
29:08	629411	N
29:08	629606	N
29:09	629757	N
29:09	629892	N
29:10	630172	N
29:11	630410	N
29:11	630623	N
29:12	630883	N
29:13	631187	N
29:13	631406	N
29:14	631646	N
29:15	631823	N
29:15	631972	N
29:16	632225	N
29:16	632453	N
29:17	632638	N
29:18	632909	N
29:18	633135	N
29:19	633361	N
29:19	633534	N
29:20	633797	N
29:21	634089	N
29:22	634337	N
29:22	634511	N
29:23	634742	N
29:23	634896	N
29:24	635209	N
29:24	635387	N
29:25	635624	N
29:26	635836	N
29:26	636034	N
29:27	636304	N
29:28	636615	N
29:29	636852	N
29:29	637057	N
29:30	637244	N
29:30	637426	N
29:31	637616	N
29:31	637816	N
29:32	638046	N
29:33	638367	N
29:33	638527	N
29:34	638712	N
29:34	638989	N
29:35	639134	N
29:36	639402	N
29:36	639659	N
29:37	639869	N
29:37	640033	N
29:38	640265	N
29:39	640511	N
29:39	640712	N
29:40	640943	N
29:41	641232	N
29:41	641413	N
29:42	641566	N
29:42	641694	N
29:43	641899	N
29:43	642111	N
29:44	642323	N
29:45	642658	N
29:45	642937	N
29:46	643152	N
29:47	643368	N
29:47	643560	N
29:48	643875	N
29:49	644043	N
29:49	644248	N
29:49	644387	N
29:50	644633	N
29:51	644819	N
29:51	644983	N
29:52	645244	N
29:52	645437	N
29:53	645569	N
29:53	645827	N
29:54	645982	N
29:55	646300	N
29:55	646461	N
29:56	646681	N
29:57	646976	N
29:57	647136	N
29:58	647386	N
29:58	647554	N
29:59	647721	N
30:00	648055	N
30:00	648240	N
30:01	648494	N
30:01	648719	N
30:02	648985	N
30:03	649157	N
30:03	649317	N
30:04	649600	N
30:05	649859	N
