0:00	204	N
0:01	480	N
0:02	759	N
0:02	1034	N
0:03	1306	N
0:04	1574	N
0:05	1855	N
0:05	2125	N
0:06	2383	N
0:07	2646	N
0:08	2908	N
0:08	3175	N
0:09	3444	N
0:10	3710	N
0:11	3967	N
0:11	4238	N
0:12	4514	N
0:13	4779	N
0:13	5036	N
0:14	5300	N
0:15	5568	N
0:16	5842	N
0:16	6107	N
0:17	6371	N
0:18	6644	N
0:19	6919	N
0:19	7184	N
0:20	7443	N
0:21	7707	N
0:22	7976	N
0:22	8249	N
0:23	8490	V
0:24	8776	N
0:25	9046	N
0:25	9321	N
0:26	9586	N
0:27	9851	N
0:28	10118	N
0:28	10388	N
0:29	10667	N
0:30	10941	N
0:31	11209	N
0:31	11477	N
0:32	11760	N
0:33	12035	N
0:34	12308	N
0:34	12583	N
0:35	12852	N
0:36	13130	N
0:37	13402	N
0:37	13668	N
0:38	13933	N
0:39	14214	N
0:40	14481	N
0:40	14742	N
0:41	15009	N
0:42	15276	N
0:43	15548	N
0:43	15823	N
0:44	16097	N
0:45	16371	N
0:46	16664	N
0:47	16942	N
0:47	17211	N
0:48	17489	N
0:49	17765	N
0:50	18045	N
0:50	18316	N
0:51	18583	N
0:52	18850	N
0:53	19124	N
0:53	19389	N
0:54	19642	N
0:55	19905	N
0:56	20169	N
0:56	20438	N
0:57	20707	N
0:58	20972	N
0:58	21233	N
0:59	21508	N
1:00	21777	N
1:01	22036	N
1:01	22251	V
1:02	22571	N
1:03	22848	N
1:04	23048	A
1:04	23340	N
1:05	23629	N
1:06	23923	N
1:07	24206	N
1:08	24480	N
1:08	24757	N
1:09	25031	N
1:10	25313	N
1:11	25582	N
1:11	25848	N
1:12	26122	N
1:13	26305	V
1:14	26669	N
1:14	26933	N
1:15	27203	N
1:16	27461	N
1:17	27733	N
1:17	28002	N
1:18	28269	N
1:19	28540	N
1:20	28824	N
1:20	29095	N
1:21	29361	N
1:22	29634	N
1:23	29903	N
1:23	30180	N
1:24	30457	N
1:25	30728	N
1:26	30995	N
1:26	31269	N
1:27	31534	N
1:28	31783	N
1:29	32048	N
1:29	32312	N
1:30	32578	N
1:31	32848	N
1:31	33112	N
1:32	33371	N
1:33	33644	N
1:34	33910	N
1:34	34170	N
1:35	34431	N
1:36	34698	N
1:37	34970	N
1:37	35237	N
1:38	35499	N
1:39	35758	N
1:40	36019	N
1:40	36292	N
1:41	36558	N
1:42	36819	N
1:43	37091	N
1:43	37356	N
1:44	37628	N
1:45	37893	N
1:45	38151	N
1:46	38413	N
1:47	38683	N
1:48	38944	N
1:48	39205	N
1:49	39462	N
1:50	39726	N
1:51	39992	N
1:51	40261	N
1:52	40520	N
1:53	40779	N
1:54	41055	N
1:54	41331	N
1:55	41602	N
1:56	41867	N
1:57	42139	N
1:57	42411	N
1:58	42685	N
1:59	42841	V
1:59	42994	V
2:00	43415	e
2:00	43517	+
2:01	43620	V
2:02	44045	N
2:03	44325	N
2:03	44586	V
2:04	44879	N
2:05	45163	N
2:06	45424	V
2:06	45693	N
2:07	45965	N
2:08	46216	V
2:09	46499	N
2:09	46763	N
2:10	46995	V
2:11	47295	N
2:12	47571	N
2:12	47760	V
2:13	48091	N
2:14	48364	N
2:14	48561	V
2:15	48903	N
2:16	49167	N
2:17	49364	V
2:17	49529	+
2:18	49694	N
2:18	49943	V
2:19	50165	V
2:20	50490	N
2:20	50753	N
2:21	51032	N
2:22	51293	F
2:23	51546	N
2:23	51806	N
2:24	52066	N
2:25	52332	F
2:26	52598	N
2:26	52850	N
2:27	53104	N
2:28	53373	F
2:29	53640	N
2:29	53892	N
2:30	54146	N
2:31	54396	F
2:31	54676	N
2:32	54947	N
2:33	55211	N
2:34	55456	F
2:34	55753	N
2:35	56028	N
2:36	56294	N
2:37	56551	F
2:37	56625	~
2:37	56819	N
2:38	57086	N
2:39	57355	N
2:40	57605	N
2:40	57857	N
2:41	58121	N
2:42	58386	N
2:42	58483	~
2:42	58639	N
2:43	58891	N
2:44	59061	V
2:44	59397	N
2:45	59660	N
2:46	59915	N
2:47	60169	N
2:47	60432	N
2:48	60704	N
2:49	60963	N
2:50	61217	N
2:50	61477	N
2:51	61733	N
2:52	61995	N
2:52	62188	A
2:53	62470	N
2:54	62746	N
2:54	62985	A
2:55	63291	N
2:56	63555	N
2:57	63815	N
2:58	64091	N
2:58	64362	N
2:59	64639	N
3:00	64905	N
3:01	65164	N
3:01	65431	N
3:02	65702	N
3:03	65959	N
3:03	66211	N
3:04	66475	N
3:05	66739	N
3:06	66960	A
3:06	67242	N
3:07	67518	N
3:08	67740	V
3:09	68062	N
3:09	68331	N
3:10	68596	N
3:11	68868	N
3:12	69136	N
3:12	69408	N
3:13	69675	N
3:14	69943	N
3:15	70204	N
3:15	70478	N
3:16	70747	N
3:17	71012	N
3:18	71281	N
3:18	71542	N
3:19	71812	N
3:20	72078	N
3:20	72341	N
3:21	72600	N
3:22	72876	N
3:23	73145	N
3:23	73413	N
3:24	73675	N
3:25	73938	N
3:26	74209	N
3:26	74481	N
3:27	74739	N
3:28	74998	N
3:29	75276	N
3:29	75553	N
3:30	75820	N
3:31	76084	N
3:32	76351	N
3:32	76618	N
3:33	76890	N
3:34	77156	N
3:35	77418	N
3:35	77687	N
3:36	77963	N
3:37	78223	N
3:37	78476	N
3:38	78736	N
3:39	78988	N
3:40	79249	N
3:40	79511	N
3:41	79775	N
3:42	80037	N
3:43	80315	N
3:43	80586	N
3:44	80848	N
3:45	81116	N
3:45	81334	A
3:46	81636	e
3:47	81931	N
3:48	82202	N
3:49	82467	N
3:49	82742	N
3:50	83008	N
3:51	83263	N
3:51	83516	N
3:52	83775	N
3:53	84031	N
3:54	84301	N
3:54	84558	N
3:55	84814	N
3:56	85081	N
3:57	85348	N
3:57	85612	N
3:58	85868	N
3:59	86136	N
4:00	86403	N
4:00	86679	N
4:01	86941	N
4:02	87204	N
4:02	87471	N
4:03	87741	N
4:04	88004	N
4:05	88260	N
4:05	88525	N
4:06	88784	N
4:07	89056	N
4:08	89313	N
4:08	89568	N
4:09	89827	N
4:10	90101	N
4:11	90360	N
4:11	90610	N
4:12	90867	N
4:13	91124	N
4:13	91393	N
4:14	91657	N
4:15	91916	N
4:16	92171	N
4:16	92447	N
4:17	92711	N
4:18	92963	N
4:18	93230	N
4:19	93495	N
4:20	93764	N
4:21	94035	N
4:21	94301	N
4:22	94560	N
4:23	94830	N
4:24	95088	N
4:24	95344	N
4:25	95599	N
4:26	95860	N
4:26	96118	N
4:27	96382	N
4:28	96634	N
4:29	96888	N
4:29	97149	N
4:30	97414	N
4:31	97676	N
4:32	97933	N
4:32	98197	N
4:33	98460	N
4:34	98728	N
4:34	98986	N
4:35	99244	N
4:36	99504	N
4:37	99774	N
4:37	100036	N
4:38	100293	N
4:39	100501	A
4:40	100800	N
4:40	101044	V
4:41	101327	N
4:42	101586	N
4:42	101839	N
4:43	102106	N
4:44	102366	N
4:45	102624	N
4:45	102888	N
4:46	103150	N
4:47	103413	N
4:48	103680	N
4:48	103937	N
4:49	104191	N
4:50	104456	N
4:50	104730	N
4:51	104992	N
4:52	105248	N
4:53	105512	N
4:53	105768	N
4:54	106035	N
4:55	106239	A
4:55	106524	N
4:56	106794	N
4:57	107076	N
4:58	107350	N
4:58	107609	N
4:59	107871	N
5:00	108131	N
5:01	108394	N
5:01	108657	N
5:02	108910	N
5:03	109162	N
5:03	109425	N
5:04	109691	N
5:05	109952	N
5:06	110206	N
5:06	110465	N
5:07	110727	N
5:08	110986	N
5:09	111248	N
5:09	111438	V
5:10	111772	N
5:11	112053	N
5:12	112320	N
5:12	112577	N
5:13	112839	N
5:14	113098	N
5:14	113363	N
5:15	113628	N
5:16	113887	N
5:17	114145	N
5:17	114410	N
5:18	114671	N
5:19	114928	N
5:19	115185	N
5:20	115441	N
5:21	115705	N
5:22	115976	N
5:22	116237	N
5:23	116496	N
5:24	116765	N
5:25	117036	N
5:25	117299	N
5:26	117552	N
5:27	117813	N
5:27	118066	N
5:28	118333	N
5:29	118590	N
5:30	118849	N
5:30	119110	N
5:31	119382	N
5:32	119643	N
5:33	119898	N
5:33	120165	N
5:34	120429	N
5:35	120699	N
5:36	120970	N
5:36	121234	N
5:37	121495	N
5:38	121773	N
5:38	122034	N
5:39	122289	N
5:40	122551	N
5:41	122813	N
5:41	123083	N
5:42	123348	N
5:43	123608	N
5:44	123860	N
5:44	124125	N
5:45	124386	N
5:46	124639	N
5:46	124892	N
5:47	125152	N
5:48	125419	N
5:49	125684	N
5:49	125945	N
5:50	126136	A
5:51	126429	N
5:51	126712	N
5:52	126983	N
5:53	127252	N
5:54	127524	N
5:55	127800	N
5:55	128075	N
5:56	128339	N
5:57	128601	N
5:57	128878	N
5:58	129144	N
5:59	129410	N
6:00	129673	N
6:00	129934	N
6:01	130199	N
6:02	130468	N
6:03	130721	N
6:03	130977	N
6:04	131239	N
6:05	131511	N
6:06	131778	N
6:06	132036	N
6:07	132305	N
6:08	132562	N
6:08	132827	N
6:09	133022	A
6:10	133305	e
6:11	133609	N
6:11	133895	N
6:12	134166	N
6:13	134426	N
6:14	134676	A
6:14	134957	N
6:15	135230	N
6:16	135494	N
6:17	135762	N
6:17	136028	N
6:18	136309	N
6:19	136581	N
6:20	136842	N
6:20	137117	N
6:21	137391	N
6:22	137677	N
6:23	137956	N
6:23	138230	N
6:24	138492	N
6:25	138765	N
6:26	139026	N
6:26	139280	N
6:27	139537	N
6:28	139795	N
6:29	140060	N
6:29	140322	N
6:30	140578	N
6:31	140827	N
6:31	141083	N
6:32	141346	N
6:33	141602	N
6:34	141853	N
6:34	142110	N
6:35	142359	N
6:36	142618	N
6:36	142871	N
6:37	143122	N
6:38	143369	N
6:38	143628	N
6:39	143880	N
6:40	144132	N
6:41	144379	N
6:41	144630	N
6:42	144883	N
6:43	145137	N
6:43	145388	N
6:44	145634	N
6:45	145887	N
6:45	146154	N
6:46	146407	N
6:47	146661	N
6:48	146912	N
6:48	147164	N
6:49	147417	N
6:50	147677	N
6:50	147918	N
6:51	148161	N
6:52	148415	N
6:52	148677	N
6:53	148930	N
6:54	149177	N
6:55	149429	N
6:55	149681	N
6:56	149937	N
6:57	150200	N
6:57	150339	~
6:57	150452	N
6:58	150701	N
6:59	150966	N
7:00	151225	N
7:00	151482	N
7:01	151728	N
7:02	151987	N
7:02	152238	N
7:03	152492	N
7:04	152741	N
7:04	152989	N
7:05	153242	N
7:06	153509	N
7:07	153767	N
7:07	154014	N
7:08	154268	N
7:09	154491	V
7:09	154784	N
7:10	155043	N
7:11	155277	N
7:12	155548	N
7:12	155809	N
7:13	156061	N
7:14	156316	N
7:14	156558	N
7:15	156809	N
7:16	157056	N
7:16	157297	A
7:17	157552	N
7:18	157797	N
7:19	158043	N
7:19	158305	N
7:20	158556	N
7:21	158802	N
7:21	159049	N
7:22	159297	N
7:23	159548	N
7:23	159804	N
7:24	160046	N
7:25	160283	N
7:25	160541	N
7:26	160797	N
7:27	161047	N
7:28	161288	N
7:28	161537	N
7:29	161778	N
7:30	162029	N
7:30	162278	N
7:31	162525	N
7:32	162763	N
7:32	162959	A
7:33	163255	N
7:33	163359	~
7:34	163505	N
7:34	163722	A
7:35	163999	N
7:36	164243	N
7:36	164492	N
7:37	164737	N
7:38	164982	N
7:38	165221	N
7:39	165470	N
7:40	165710	N
7:40	165952	N
7:41	166192	N
7:42	166440	N
7:43	166682	N
7:43	166934	N
7:44	167132	A
7:45	167422	N
7:45	167669	N
7:46	167924	N
7:47	168170	N
7:47	168415	N
7:48	168654	N
7:49	168863	A
7:49	169141	N
7:50	169390	N
7:51	169587	A
7:51	169866	N
7:52	170114	N
7:53	170368	N
7:53	170608	N
7:54	170854	N
7:55	171095	N
7:55	171310	A
7:56	171577	N
7:57	171831	N
7:57	172074	N
7:58	172318	N
7:59	172547	A
8:00	172816	N
8:00	173072	N
8:01	173320	N
8:02	173568	N
8:02	173817	N
8:03	174061	N
8:04	174312	N
8:04	174559	N
8:05	174772	A
8:06	175011	A
8:06	175295	N
8:07	175548	N
8:08	175792	N
8:08	176035	N
8:09	176292	N
8:10	176540	N
8:11	176793	N
8:11	177043	N
8:12	177286	N
8:13	177535	N
8:13	177790	N
8:14	178037	N
8:15	178280	N
8:15	178523	N
8:16	178775	N
8:17	179022	N
8:17	179276	N
8:18	179526	N
8:19	179776	N
8:20	180027	N
8:20	180291	N
8:21	180542	N
8:22	180787	N
8:22	181041	N
8:23	181294	N
8:24	181553	N
8:25	181817	N
8:25	182072	N
8:26	182324	N
8:27	182584	N
8:27	182843	N
8:28	183101	N
8:29	183345	N
8:29	183596	N
8:30	183845	N
8:31	184100	N
8:32	184351	N
8:32	184568	A
8:33	184814	e
8:34	185113	N
8:34	185376	N
8:35	185630	N
8:36	185883	N
8:37	186134	N
8:37	186393	N
8:38	186649	N
8:39	186893	N
8:39	187139	N
8:40	187390	N
8:41	187647	N
8:41	187899	N
8:42	188141	N
8:43	188390	N
8:43	188635	N
8:44	188890	N
8:45	189146	N
8:46	189393	N
8:46	189635	N
8:47	189893	N
8:48	190144	N
8:48	190391	N
8:49	190639	N
8:50	190840	A
8:50	191093	e
8:51	191377	N
8:52	191632	N
8:53	191882	N
8:53	192125	N
8:54	192389	N
8:55	192639	N
8:55	192882	N
8:56	193131	N
8:57	193385	N
8:57	193642	N
8:58	193900	N
8:59	194153	N
8:59	194394	N
9:00	194651	N
9:01	194906	N
9:02	195152	N
9:02	195392	N
9:03	195631	N
9:04	195869	N
9:04	196068	A
9:05	196359	N
9:06	196606	N
9:06	196838	A
9:07	197102	N
9:08	197348	N
9:08	197597	N
9:09	197840	N
9:10	198088	N
9:10	198329	N
9:11	198579	N
9:12	198821	N
9:12	199064	N
9:13	199300	N
9:14	199553	N
9:14	199797	N
9:15	200040	N
9:16	200280	N
9:16	200500	A
9:17	200769	N
9:18	201027	N
9:19	201273	N
9:19	201520	N
9:20	201766	N
9:21	202024	N
9:21	202269	N
9:22	202513	N
9:23	202758	N
9:23	202916	V
9:24	203251	N
9:25	203502	N
9:25	203747	N
9:26	203986	N
9:27	204223	N
9:27	204476	N
9:28	204715	N
9:29	204926	A
9:29	205185	N
9:30	205433	N
9:31	205653	A
9:31	205910	N
9:32	206153	N
9:33	206395	N
9:33	206606	A
9:34	206874	N
9:35	207120	N
9:35	207353	F
9:36	207587	N
9:37	207789	V
9:37	208009	N
9:38	208178	+
9:38	208252	V
9:39	208445	V
9:39	208700	V
9:40	208882	V
9:40	209134	V
9:41	209331	V
9:42	209586	V
9:42	209775	V
9:43	210015	V
9:43	210202	V
9:44	210433	V
9:45	210628	V
9:45	210868	V
9:46	211059	V
9:46	211284	V
9:47	211467	V
9:48	211707	V
9:48	211901	V
9:49	212130	V
9:49	212322	V
9:50	212537	V
9:50	212718	V
9:51	212934	V
9:52	213125	V
9:52	213347	V
9:53	213536	V
9:53	213744	V
9:54	213932	V
9:54	214144	V
9:55	214342	V
9:55	214546	V
9:56	214740	V
9:57	214940	V
9:57	215125	V
9:58	215316	V
9:58	215506	V
9:59	215711	V
9:59	215905	V
10:00	216115	V
10:00	216304	V
10:01	216494	V
10:01	216692	V
10:02	216907	V
10:03	217090	V
10:03	217281	V
10:04	217469	V
10:04	217674	V
10:05	217860	V
10:05	218063	V
10:06	218262	V
10:06	218451	V
10:07	218642	V
10:07	218847	V
10:08	219038	V
10:09	219262	V
10:09	219449	V
10:10	219653	V
10:10	219842	V
10:11	220034	V
10:11	220226	V
10:12	220437	V
10:12	220627	V
10:13	220832	V
10:13	221026	V
10:14	221142	~
10:14	221203	V
10:14	221391	V
10:15	221630	V
10:16	221816	V
10:16	222020	V
10:17	222209	V
10:17	222400	V
10:18	222589	V
10:18	222803	V
10:19	222993	V
10:19	223198	V
10:20	223380	V
10:21	223588	V
10:21	223778	V
10:22	223987	V
10:22	224176	V
10:23	224387	V
10:23	224568	V
10:24	224768	V
10:24	224962	V
10:25	225179	V
10:26	225364	V
10:26	225599	V
10:27	225790	V
10:27	225997	V
10:28	226184	V
10:28	226407	V
10:29	226599	V
10:30	226830	V
10:30	227015	V
10:31	227229	V
10:31	227411	V
10:32	227765	V
10:33	227921	~
10:33	228004	+
10:33	228098	N
10:34	228290	A
10:34	228502	A
10:35	228806	N
10:36	229067	N
10:36	229308	A
10:37	229559	N
10:38	229742	~
10:38	229810	N
10:39	230052	N
10:39	230300	N
10:40	230535	N
10:41	230772	N
10:41	231005	N
10:42	231257	N
10:43	231489	N
10:43	231719	N
10:44	231948	N
10:44	232193	N
10:45	232431	N
10:46	232673	N
10:46	232910	N
10:47	233148	N
10:48	233384	N
10:48	233624	N
10:49	233869	N
10:50	234106	N
10:50	234214	~
10:50	234339	N
10:51	234575	N
10:52	234810	N
10:52	235057	N
10:53	235300	N
10:54	235543	N
10:54	235780	N
10:55	236029	N
10:56	236274	N
10:57	236520	N
10:57	236760	N
10:58	237004	N
10:59	237252	N
10:59	237499	N
11:00	237745	N
11:01	237996	N
11:01	238241	N
11:02	238503	N
11:03	238752	N
11:03	238998	N
11:04	239247	N
11:05	239496	N
11:05	239748	N
11:06	239974	V
11:07	240243	N
11:08	240494	N
11:08	240741	N
11:09	241004	N
11:10	241255	N
11:10	241503	N
11:11	241750	N
11:12	241998	N
11:12	242247	N
11:13	242497	N
11:14	242741	N
11:14	242979	N
11:15	243222	N
11:16	243478	N
11:17	243725	N
11:17	243971	N
11:18	244218	N
11:19	244467	N
11:19	244717	N
11:20	244974	N
11:21	245219	N
11:21	245462	N
11:22	245713	N
11:23	245969	N
11:23	246214	N
11:24	246449	N
11:25	246695	N
11:25	246941	N
11:26	247185	N
11:27	247428	N
11:27	247667	N
11:28	247903	N
11:29	248143	N
11:29	248393	N
11:30	248633	N
11:31	248871	N
11:31	249110	N
11:32	249355	N
11:33	249600	N
11:34	249847	N
11:34	250095	N
11:35	250340	N
11:36	250586	N
11:36	250840	N
11:37	251088	N
11:38	251330	N
11:38	251568	N
11:39	251815	N
11:40	252062	N
11:40	252310	N
11:41	252483	A
11:41	252668	A
11:42	252955	N
11:43	253239	N
11:44	253494	N
11:44	253743	N
11:45	253988	N
11:46	254242	N
11:46	254489	N
11:47	254741	N
11:48	254981	N
11:48	255223	N
11:49	255471	N
11:50	255726	N
11:51	255972	N
11:51	256215	N
11:52	256462	N
11:53	256707	N
11:53	256961	N
11:54	257218	N
11:55	257462	N
11:55	257702	N
11:56	257957	N
11:57	258214	N
11:57	258460	N
11:58	258709	N
11:59	258958	N
12:00	259201	N
12:00	259453	N
12:01	259699	N
12:02	259943	N
12:02	260177	N
12:03	260425	N
12:04	260674	N
12:04	260914	N
12:05	261148	N
12:06	261396	N
12:06	261640	N
12:07	261891	N
12:08	262082	A
12:08	262354	N
12:09	262530	V
12:10	262814	V
12:10	263127	N
12:11	263369	N
12:12	263612	N
12:12	263704	+
12:12	263797	V
12:13	264110	N
12:14	264290	V
12:15	264602	N
12:15	264773	V
12:16	265094	N
12:16	265272	V
12:17	265583	N
12:18	265755	V
12:19	266055	N
12:19	266231	V
12:20	266533	N
12:20	266711	V
12:21	266968	N
12:22	267147	V
12:23	267496	N
12:23	267673	V
12:24	267997	N
12:24	268173	V
12:25	268474	N
12:26	268653	V
12:27	268959	N
12:27	269062	+
12:27	269138	V
12:28	269353	V
12:28	269518	V
12:29	269716	+
12:29	269819	N
12:30	270000	V
12:31	270371	N
12:31	270541	V
12:32	270862	N
12:32	271038	V
12:33	271358	N
12:34	271534	V
12:35	271843	N
12:35	272026	V
12:36	272324	N
12:36	272453	~
12:36	272508	V
12:37	272660	+
12:37	272812	N
12:38	273053	N
12:39	273289	N
12:39	273532	N
12:40	273764	N
12:41	274006	N
12:41	274245	N
12:42	274479	N
12:43	274708	N
12:43	274951	N
12:44	275042	~
12:44	275190	N
12:45	275430	N
12:45	275654	N
12:46	275898	N
12:47	276139	N
12:47	276379	N
12:48	276625	N
12:49	276863	N
12:49	277098	N
12:50	277336	N
12:51	277588	N
12:51	277827	N
12:52	278054	N
12:53	278289	N
12:53	278532	N
12:54	278779	N
12:55	279021	N
12:55	279258	N
12:56	279494	N
12:57	279740	N
12:57	279988	N
12:58	280234	N
12:59	280471	N
12:59	280706	N
13:00	280954	N
13:01	281201	N
13:01	281452	N
13:02	281698	N
13:03	281939	N
13:03	282190	N
13:04	282446	N
13:05	282693	N
13:05	282935	N
13:06	283183	N
13:07	283429	N
13:07	283679	N
13:08	283938	N
13:09	284188	N
13:10	284436	N
13:10	284640	A
13:11	284942	N
13:12	285121	V
13:12	285370	V
13:13	285682	N
13:14	285926	N
13:14	286174	N
13:15	286427	N
13:16	286670	N
13:16	286905	N
13:17	287158	N
13:18	287413	N
13:19	287658	N
13:19	287897	N
13:20	288143	N
13:21	288386	N
13:21	288636	N
13:22	288886	N
13:23	289135	N
13:23	289380	N
13:24	289636	N
13:25	289822	A
13:25	290008	A
13:26	290291	e
13:27	290581	N
13:27	290841	N
13:28	291096	N
13:29	291347	N
13:29	291596	N
13:30	291845	N
13:31	292106	N
13:32	292356	N
13:32	292598	N
13:33	292843	N
13:34	293091	N
13:34	293343	N
13:35	293594	N
13:36	293830	N
13:36	294074	N
13:37	294320	N
13:38	294577	N
13:38	294827	N
13:39	295068	N
13:40	295314	N
13:40	295558	N
13:41	295812	N
13:42	296055	V
13:43	296310	N
13:43	296556	N
13:44	296741	A
13:44	296938	A
13:45	297234	N
13:46	297520	N
13:47	297792	N
13:47	298052	N
13:48	298313	N
13:48	298391	+
13:49	298525	V
13:50	298823	N
13:50	299049	V
13:51	299339	N
13:52	299578	F
13:52	299841	N
13:53	300077	F
13:54	300343	N
13:54	300586	F
13:55	300852	N
13:56	301082	F
13:57	301340	N
13:57	301567	V
13:58	301844	N
13:59	302066	V
13:59	302339	N
14:00	302440	+
14:00	302582	N
14:01	302831	N
14:01	303044	V
14:02	303331	N
14:03	303577	N
14:03	303818	N
14:04	304011	V
14:05	304309	N
14:06	304560	N
14:06	304804	N
14:07	305056	N
14:08	305306	N
14:08	305562	N
14:09	305809	N
14:10	306064	N
14:10	306311	N
14:11	306571	N
14:12	306821	N
14:12	307067	N
14:13	307318	N
14:14	307569	N
14:15	307820	N
14:15	308018	V
14:16	308304	N
14:17	308522	V
14:17	308793	N
14:18	309046	N
14:19	309291	N
14:19	309532	N
14:20	309778	N
14:20	309956	A
14:21	310173	A
14:22	310483	N
14:23	310742	N
14:23	310988	N
14:24	311231	N
14:25	311493	N
14:25	311736	N
14:26	311979	N
14:27	312219	N
14:27	312466	N
14:28	312710	N
14:29	312957	N
14:30	313200	N
14:30	313443	N
14:31	313679	N
14:32	313935	N
14:32	314175	N
14:33	314421	N
14:34	314657	N
14:34	314911	N
14:35	315156	N
14:36	315402	N
14:36	315647	N
14:37	315851	A
14:38	316119	N
14:38	316384	N
14:39	316638	N
14:40	316884	N
14:40	317128	N
14:41	317377	N
14:42	317634	N
14:43	317880	N
14:43	318129	N
14:44	318376	N
14:44	318555	A
14:45	318836	N
14:46	319019	V
14:46	319288	V
14:47	319588	N
14:48	319839	N
14:49	320087	N
14:49	320347	N
14:50	320595	N
14:51	320841	N
14:51	321091	N
14:52	321348	N
14:53	321600	N
14:54	321843	N
14:54	322093	N
14:55	322342	N
14:56	322600	N
14:56	322793	A
14:57	323072	N
14:57	323250	V
14:58	323522	V
14:59	323870	N
15:00	324120	N
15:00	324335	A
15:01	324583	A
15:02	324867	N
15:03	325120	N
15:03	325370	N
15:04	325610	N
15:05	325855	N
15:05	326112	N
15:06	326357	N
15:07	326592	N
15:07	326843	N
15:08	327084	N
15:09	327339	N
15:09	327596	N
15:10	327845	N
15:11	328020	A
15:11	328226	e
15:12	328547	N
15:13	328812	N
15:14	329060	N
15:14	329312	N
15:15	329563	N
15:16	329819	N
15:16	330077	N
15:17	330326	N
15:18	330576	N
15:18	330836	N
15:19	331090	N
15:20	331336	N
15:21	331578	N
15:21	331830	N
15:22	332077	N
15:23	332327	N
15:23	332571	N
15:24	332810	N
15:25	333060	N
15:25	333312	N
15:26	333560	N
15:27	333799	N
15:27	334044	N
15:28	334283	N
15:29	334488	A
15:29	334684	+
15:29	334771	N
15:30	334946	V
15:31	335292	N
15:31	335466	V
15:32	335809	N
15:33	335984	V
15:34	336312	N
15:34	336486	V
15:35	336811	N
15:36	336988	V
15:37	337328	N
15:37	337500	V
15:38	337823	N
15:38	338000	V
15:39	338337	N
15:40	338512	V
15:41	338830	N
15:41	339011	V
15:42	339336	N
15:43	339508	V
15:43	339636	+
15:43	339765	N
15:44	340046	N
15:45	340303	N
15:46	340560	N
15:46	340811	N
15:47	341050	N
15:48	341291	N
15:48	341540	N
15:49	341784	N
15:50	342028	N
15:50	342275	N
15:51	342523	N
15:52	342764	N
15:52	343014	N
15:53	343264	N
15:54	343511	N
15:54	343756	N
15:55	344004	N
15:56	344252	N
15:56	344506	N
15:57	344755	N
15:58	345008	N
15:59	345258	N
15:59	345519	N
16:00	345743	A
16:01	346017	N
16:01	346266	N
16:02	346516	N
16:03	346768	N
16:03	347020	N
16:04	347265	N
16:05	347509	N
16:06	347761	N
16:06	348018	N
16:07	348261	N
16:08	348504	N
16:08	348748	N
16:09	348989	N
16:10	349242	N
16:10	349494	N
16:11	349739	N
16:12	349984	N
16:12	350234	N
16:13	350491	N
16:14	350739	N
16:14	350982	N
16:15	351226	N
16:16	351467	N
16:16	351716	N
16:17	351971	N
16:18	352176	A
16:19	352452	N
16:19	352664	V
16:20	352955	N
16:21	353204	N
16:21	353441	N
16:22	353687	N
16:23	353928	N
16:23	354173	N
16:24	354419	N
16:25	354659	N
16:25	354897	N
16:26	355141	N
16:27	355392	N
16:27	355635	N
16:28	355863	N
16:29	356108	N
16:29	356346	N
16:30	356594	N
16:31	356840	N
16:31	357086	N
16:32	357325	N
16:33	357584	N
16:34	357842	N
16:34	358091	N
16:35	358336	N
16:36	358590	N
16:36	358845	N
16:37	359095	N
16:38	359343	N
16:38	359589	N
16:39	359836	N
16:40	360099	N
16:40	360350	N
16:41	360600	N
16:42	360853	N
16:43	361099	N
16:43	361357	N
16:44	361618	N
16:45	361868	N
16:45	362117	N
16:46	362377	N
16:47	362643	N
16:48	362902	N
16:48	363151	N
16:49	363412	N
16:50	363669	N
16:50	363929	N
16:51	364110	A
16:51	364283	V
16:52	364657	N
16:53	364748	+
16:53	364843	V
16:54	365119	V
16:54	365334	V
16:55	365500	+
16:55	365706	N
16:56	365881	V
16:57	366217	N
16:57	366395	V
16:58	366675	N
16:59	366842	V
17:00	367200	V
17:00	367497	N
17:01	367745	N
17:02	367994	N
17:02	368245	N
17:03	368468	V
17:04	368738	N
17:04	368982	N
17:05	369230	N
17:06	369473	N
17:07	369727	N
17:07	369973	N
17:08	370200	V
17:09	370458	N
17:09	370680	N
17:10	370947	N
17:11	371206	N
17:11	371431	V
17:12	371697	N
17:13	371954	N
17:13	372210	F
17:14	372462	N
17:15	372702	N
17:15	372952	N
17:16	373194	N
17:16	373294	+
17:17	373394	V
17:18	373700	N
17:18	373943	N
17:19	374153	V
17:20	374444	N
17:20	374698	N
17:21	374918	V
17:22	375191	N
17:22	375402	A
17:23	375556	+
17:23	375669	V
17:24	375852	V
17:24	376084	V
17:25	376253	V
17:25	376472	V
17:26	376635	V
17:26	376860	V
17:27	377037	V
17:27	377259	V
17:28	377429	V
17:29	377657	V
17:29	377823	V
17:30	378046	V
17:30	378222	V
17:31	378451	V
17:31	378625	V
17:32	378851	V
17:32	379012	V
17:33	379252	V
17:33	379426	V
17:34	379658	V
17:35	379828	V
17:35	380042	V
17:36	380213	V
17:36	380458	V
17:37	380619	V
17:37	380862	V
17:38	381039	V
17:39	381268	V
17:39	381434	V
17:40	381675	V
17:40	381847	V
17:41	382088	V
17:41	382256	V
17:42	382472	V
17:42	382641	V
17:43	382882	V
17:44	383044	V
17:44	383288	V
17:45	383461	V
17:45	383696	V
17:46	383866	V
17:46	384111	V
17:47	384281	V
17:48	384538	V
17:48	384708	V
17:49	384949	V
17:49	385116	V
17:50	385376	V
17:50	385545	V
17:51	385817	V
17:52	385986	V
17:52	386247	V
17:53	386415	V
17:54	386675	V
17:54	386855	V
17:55	387098	V
17:55	387269	V
17:56	387516	V
17:56	387683	V
17:57	387951	V
17:58	388127	V
17:58	388404	V
17:59	388572	V
18:00	388858	V
18:00	389032	V
18:01	389421	V
18:02	389589	+
18:02	389757	N
18:03	390015	N
18:04	390266	N
18:04	390521	N
18:05	390777	N
18:06	391027	N
18:06	391266	N
18:07	391521	N
18:08	391775	N
18:08	392019	N
18:09	392262	N
18:10	392513	N
18:10	392755	N
18:11	393006	N
18:12	393254	N
18:13	393503	N
18:13	393749	N
18:14	394008	N
18:14	394193	A
18:15	394470	N
18:16	394725	N
18:17	394987	N
18:17	395243	N
18:18	395501	N
18:19	395750	N
18:20	396001	N
18:20	396252	N
18:21	396512	N
18:22	396766	N
18:22	397006	N
18:23	397250	N
18:24	397495	N
18:24	397732	V
18:25	397999	N
18:26	398244	N
18:26	398492	N
18:27	398748	N
18:28	399003	N
18:29	399253	N
18:29	399494	N
18:30	399748	N
18:31	399995	N
18:31	400249	N
18:32	400495	N
18:33	400742	N
18:33	400999	N
18:34	401263	N
18:35	401516	N
18:36	401762	N
18:36	402014	N
18:37	402266	N
18:38	402522	N
18:38	402782	N
18:39	403031	N
18:40	403278	N
18:40	403536	N
18:41	403796	N
18:42	404049	N
18:43	404298	N
18:43	404548	N
18:44	404793	N
18:44	404979	V
18:45	405294	N
18:46	405473	V
18:47	405751	V
18:47	406055	N
18:48	406307	N
18:49	406559	N
18:50	406801	N
18:50	407055	N
18:51	407307	N
18:52	407554	N
18:52	407802	N
18:53	408045	N
18:54	408296	N
18:54	408556	N
18:55	408806	N
18:56	409049	N
18:56	409298	N
18:57	409551	N
18:58	409804	N
18:59	410064	N
18:59	410309	N
19:00	410554	N
19:01	410808	N
19:01	411063	N
19:02	411318	N
19:03	411562	N
19:03	411814	N
19:04	412054	N
19:05	412310	N
19:05	412558	N
19:06	412804	N
19:07	413041	N
19:08	413293	N
19:08	413547	N
19:09	413795	N
19:10	414038	N
19:10	414218	A
19:11	414492	N
19:11	414676	V
19:12	414953	V
19:13	415208	e
19:14	415515	N
19:14	415707	a
19:15	415992	N
19:16	416253	N
19:16	416508	N
19:17	416762	N
19:18	417015	N
19:19	417271	N
19:19	417528	N
19:20	417776	N
19:21	418026	N
19:21	418286	N
19:22	418538	N
19:23	418786	N
19:23	419030	N
19:24	419284	N
19:25	419535	N
19:26	419782	N
19:26	420035	N
19:27	420278	N
19:28	420522	N
19:28	420778	N
19:29	421026	N
19:30	421263	N
19:30	421509	N
19:31	421754	N
19:32	422012	N
19:32	422264	N
19:33	422518	N
19:34	422767	N
19:35	423023	N
19:35	423279	N
19:36	423530	N
19:37	423772	N
19:37	424021	N
19:38	424269	N
19:39	424457	A
19:39	424732	N
19:40	424904	V
19:41	425166	V
19:41	425512	N
19:42	425769	N
19:43	426016	N
19:44	426262	N
19:44	426509	N
19:45	426757	N
19:46	427007	N
19:46	427253	N
19:47	427499	N
19:48	427746	N
19:48	428004	N
19:49	428247	N
19:50	428490	N
19:50	428740	N
19:51	428982	N
19:52	429231	N
19:53	429485	N
19:53	429723	N
19:54	429965	N
19:55	430219	N
19:55	430479	N
19:56	430733	N
19:57	430973	N
19:57	431231	N
19:58	431478	N
19:59	431734	N
19:59	431988	N
20:00	432236	N
20:01	432482	N
20:02	432740	N
20:02	432995	N
20:03	433243	N
20:04	433491	N
20:04	433739	N
20:05	433994	N
20:06	434241	N
20:06	434487	N
20:07	434730	N
20:08	434977	N
20:08	435233	N
20:09	435482	N
20:10	435724	N
20:11	435971	N
20:11	436222	N
20:12	436474	N
20:13	436726	N
20:13	436969	N
20:14	437220	N
20:15	437465	N
20:15	437716	N
20:16	437964	N
20:17	438207	N
20:17	438457	N
20:18	438708	N
20:19	438965	N
20:20	439219	N
20:20	439465	N
20:21	439720	N
20:22	439977	N
20:22	440228	N
20:23	440476	N
20:24	440722	N
20:24	440974	N
20:25	441229	N
20:26	441485	N
20:27	441730	N
20:27	441976	N
20:28	442221	N
20:29	442480	N
20:29	442724	N
20:30	442962	N
20:31	443209	N
20:31	443459	N
20:32	443712	N
20:33	443969	N
20:33	444220	N
20:34	444467	N
20:35	444719	N
20:36	444982	N
20:36	445229	N
20:37	445472	N
20:38	445723	N
20:38	445971	N
20:39	446229	N
20:40	446488	N
20:40	446734	N
20:41	446983	N
20:42	447239	N
20:43	447499	N
20:43	447752	N
20:44	447996	N
20:45	448251	N
20:45	448499	N
20:46	448754	N
20:47	449008	N
20:47	449262	N
20:48	449506	N
20:49	449768	N
20:50	450023	N
20:50	450270	N
20:51	450510	N
20:52	450760	N
20:52	451003	N
20:53	451254	N
20:54	451498	N
20:54	451747	N
20:55	451994	N
20:56	452255	N
20:56	452502	N
20:57	452753	N
20:58	452999	N
20:59	453250	N
20:59	453505	N
21:00	453758	N
21:01	454004	N
21:01	454258	N
21:02	454514	N
21:03	454773	N
21:03	454986	A
21:04	455244	e
21:05	455521	N
21:06	455768	N
21:06	456031	N
21:07	456287	N
21:08	456538	N
21:08	456783	N
21:09	457046	N
21:10	457299	N
21:10	457547	N
21:11	457794	N
21:12	458040	N
21:13	458287	N
21:13	458535	N
21:14	458782	N
21:15	459027	N
21:15	459270	N
21:16	459530	N
21:17	459778	N
21:17	460019	N
21:18	460272	N
21:19	460520	N
21:19	460776	N
21:20	461030	N
21:21	461277	N
21:22	461521	N
21:22	461777	N
21:23	462036	N
21:24	462292	N
21:24	462538	N
21:25	462796	N
21:26	463048	N
21:26	463301	N
21:27	463547	N
21:28	463792	N
21:28	464036	N
21:29	464290	N
21:30	464536	N
21:31	464780	N
21:31	464969	A
21:32	465146	+
21:32	465246	N
21:32	465425	V
21:33	465731	N
21:34	465907	V
21:35	466270	N
21:35	466446	V
21:36	466786	N
21:37	466962	V
21:38	467294	N
21:38	467465	V
21:39	467800	N
21:39	467973	V
21:40	468307	N
21:41	468480	V
21:42	468803	N
21:42	468985	V
21:43	469316	N
21:44	469492	V
21:45	469817	N
21:45	469999	V
21:46	470328	N
21:46	470507	V
21:47	470836	N
21:48	471008	V
21:49	471327	N
21:49	471513	V
21:50	471828	N
21:51	471997	V
21:51	472314	N
21:52	472493	V
21:53	472811	N
21:53	472992	V
21:54	473312	N
21:55	473482	V
21:56	473803	N
21:56	473986	V
21:57	474272	N
21:57	474440	V
21:58	474797	N
21:59	474976	V
22:00	475312	N
22:00	475497	V
22:01	475819	N
22:02	475995	V
22:03	476323	N
22:03	476500	V
22:04	476817	N
22:04	476986	V
22:05	477311	N
22:06	477487	V
22:07	477810	N
22:07	477986	V
22:08	478300	N
22:09	478480	V
22:10	478803	N
22:10	478982	V
22:11	479297	N
22:11	479473	V
22:12	479796	N
22:13	479976	V
22:14	480301	N
22:14	480477	V
22:15	480795	N
22:16	480974	V
22:16	481301	N
22:17	481478	V
22:18	481786	N
22:18	481960	V
22:19	482284	N
22:20	482464	V
22:21	482795	N
22:21	482981	F
22:22	483279	N
22:22	483466	V
22:23	483800	N
22:24	483977	V
22:25	484284	N
22:25	484458	V
22:26	484721	N
22:26	484912	A
22:27	485217	N
22:28	485398	V
22:29	485728	N
22:29	485908	V
22:30	486247	N
22:31	486427	V
22:32	486740	N
22:32	486918	V
22:33	487238	N
22:33	487428	V
22:34	487752	N
22:35	487932	V
22:36	488255	N
22:36	488437	V
22:37	488771	N
22:38	488951	V
22:39	489270	N
22:39	489445	V
22:40	489770	N
22:40	489947	V
22:41	490271	N
22:42	490449	V
22:43	490771	N
22:43	490956	V
22:44	491282	N
22:45	491464	V
22:46	491777	N
22:46	491961	V
22:47	492285	N
22:47	492477	V
22:48	492794	N
22:49	492969	V
22:50	493307	N
22:50	493495	V
22:51	493811	N
22:52	493991	V
22:53	494310	N
22:53	494481	V
22:54	494816	N
22:54	494994	V
22:55	495316	N
22:56	495491	V
22:57	495825	N
22:57	496006	V
22:58	496314	N
22:59	496493	V
23:00	496805	N
23:00	496989	V
23:01	497295	N
23:01	497475	V
23:02	497781	N
23:03	497960	V
23:04	498280	N
23:04	498458	V
23:05	498763	N
23:05	498933	V
23:06	499249	N
23:07	499430	V
23:08	499725	N
23:08	499899	V
23:09	500234	N
23:10	500414	V
23:10	500751	N
23:11	500933	V
23:12	501244	N
23:12	501421	V
23:13	501743	N
23:14	501923	V
23:15	502235	N
23:15	502407	V
23:16	502724	N
23:16	502904	V
23:17	503213	N
23:18	503391	V
23:19	503695	N
23:19	503883	V
23:20	504184	N
23:20	504358	V
23:21	504670	N
23:22	504849	V
23:23	505151	N
23:23	505336	V
23:24	505643	N
23:25	505821	V
23:25	506126	N
23:26	506316	V
23:27	506620	N
23:27	506797	V
23:28	507117	N
23:29	507291	V
23:30	507600	N
23:30	507788	V
23:31	508103	N
23:31	508272	V
23:32	508588	N
23:33	508771	V
23:34	509096	N
23:34	509275	V
23:35	509593	N
23:36	509773	V
23:36	510076	N
23:37	510271	V
23:38	510576	N
23:38	510748	V
23:39	511066	N
23:40	511242	V
23:41	511564	N
23:41	511749	V
23:42	512059	N
23:42	512239	V
23:43	512554	N
23:44	512745	V
23:45	513057	N
23:45	513234	V
23:46	513560	N
23:47	513737	V
23:47	514070	N
23:48	514257	V
23:49	514577	N
23:49	514755	V
23:50	515082	N
23:51	515269	V
23:52	515588	N
23:52	515760	V
23:53	516088	N
23:54	516264	V
23:54	516592	N
23:55	516776	V
23:56	517085	N
23:56	517262	V
23:57	517592	N
23:58	517776	V
23:59	518085	N
23:59	518262	V
24:00	518593	N
24:01	518772	V
24:01	519103	N
24:02	519178	+
24:02	519278	V
24:03	519583	V
24:03	519767	V
24:04	520002	+
24:04	520108	N
24:05	520287	V
24:06	520599	N
24:06	520780	V
24:07	521100	N
24:08	521280	V
24:08	521445	+
24:08	521611	N
24:09	521858	N
24:10	522047	V
24:10	522351	N
24:11	522600	N
24:12	522844	N
24:13	523081	N
24:13	523326	N
24:14	523565	N
24:15	523812	N
24:15	524059	N
24:16	524303	N
24:17	524538	N
24:17	524785	N
24:18	525031	N
24:19	525277	N
24:19	525510	N
24:20	525750	N
24:21	525992	N
24:21	526238	N
24:22	526483	N
24:23	526735	N
24:23	526975	N
24:24	527231	N
24:25	527479	N
24:25	527725	N
24:26	527973	N
24:27	528217	N
24:27	528464	N
24:28	528718	N
24:29	528958	N
24:29	529199	N
24:30	529450	N
24:31	529706	N
24:32	529953	N
24:32	530194	N
24:33	530441	N
24:34	530688	N
24:34	530940	N
24:35	531196	N
24:36	531440	N
24:36	531681	N
24:37	531938	N
24:38	532193	N
24:39	532447	N
24:39	532686	N
24:40	532944	N
24:41	533188	N
24:41	533446	N
24:42	533697	N
24:43	533944	N
24:43	534197	N
24:44	534464	N
24:45	534722	N
24:46	534968	N
24:46	535231	N
24:47	535488	N
24:48	535686	A
24:48	535973	e
24:49	536156	V
24:50	536410	V
24:51	536777	N
24:51	536963	V
24:52	537257	V
24:53	537533	N
24:53	537786	N
24:54	538037	N
24:55	538291	N
24:55	538464	A
24:56	538740	N
24:56	538915	V
24:57	539205	V
24:58	539519	N
24:59	539768	N
25:00	540019	N
25:00	540267	N
25:01	540514	N
25:02	540770	N
25:02	541010	N
25:03	541241	N
25:04	541484	N
25:04	541733	N
25:05	541972	N
25:06	542202	N
25:06	542448	N
25:07	542676	N
25:08	542936	N
25:08	543187	N
25:09	543420	V
25:10	543672	N
25:10	543923	N
25:11	544175	N
25:12	544417	N
25:12	544651	F
25:13	544903	N
25:14	545097	A
25:14	545373	N
25:15	545556	V
25:16	545806	V
25:17	546137	N
25:17	546392	N
25:18	546602	V
25:19	546891	N
25:19	547131	N
25:20	547359	V
25:21	547620	N
25:21	547874	N
25:22	548125	N
25:23	548378	N
25:23	548617	N
25:24	548864	N
25:25	549124	N
25:25	549345	V
25:26	549613	N
25:27	549863	N
25:27	550066	V
25:28	550360	N
25:29	550607	e
25:29	550793	V
25:30	551089	e
25:31	551280	V
25:32	551533	V
25:33	551901	N
25:33	552087	V
25:34	552370	V
25:35	552713	N
25:36	552988	N
25:36	553240	N
25:37	553496	N
25:38	553752	N
25:38	554012	N
25:39	554260	N
25:40	554505	N
25:40	554756	N
25:41	555005	N
25:42	555198	V
25:43	555517	N
25:43	555771	N
25:44	555954	V
25:45	556281	N
25:45	556537	N
25:46	556704	V
25:47	557045	N
25:47	557230	V
25:48	557513	V
25:49	557837	N
25:50	558080	V
25:50	558269	N
25:51	558406	+
25:51	558527	V
25:51	558716	V
25:52	558951	V
25:53	559126	V
25:53	559345	V
25:54	559599	+
25:54	559741	e
25:55	560073	N
25:56	560279	V
25:57	560635	N
25:58	560905	N
25:58	561102	V
25:59	561444	N
26:00	561695	N
26:00	561887	V
26:01	562211	N
26:02	562470	N
26:02	562670	V
26:03	562970	N
26:04	563214	N
26:05	563414	V
26:05	563711	N
26:06	563960	N
26:07	564156	V
26:07	564449	N
26:08	564702	N
26:09	564891	V
26:09	565007	+
26:09	565124	N
26:10	565408	N
26:11	565673	N
26:12	565935	N
26:12	566184	N
26:13	566424	N
26:14	566668	N
26:14	566908	N
26:15	567152	N
26:16	567403	N
26:16	567634	N
26:17	567869	N
26:18	568114	N
26:18	568366	N
26:19	568603	N
26:20	568837	N
26:20	569075	N
26:21	569316	N
26:22	569557	N
26:22	569809	N
26:23	570048	N
26:24	570287	N
26:24	570536	N
26:25	570790	N
26:26	571042	N
26:26	571282	N
26:27	571530	N
26:28	571778	N
26:28	572029	N
26:29	572278	N
26:30	572530	N
26:31	572773	N
26:31	573024	N
26:32	573276	N
26:33	573524	N
26:33	573771	N
26:34	574023	N
26:35	574278	N
26:35	574539	N
26:36	574793	N
26:37	575049	N
26:38	575312	N
26:38	575585	N
26:39	575802	A
26:40	576029	A
26:40	576357	N
26:41	576580	V
26:42	576903	N
26:43	577089	V
26:43	577351	V
26:44	577698	N
26:45	577970	N
26:46	578224	N
26:46	578480	N
26:47	578733	N
26:48	578988	N
26:48	579239	N
26:49	579503	N
26:50	579748	N
26:51	579996	N
26:51	580258	N
26:52	580510	N
26:53	580742	N
26:53	581002	N
26:54	581261	N
26:55	581508	N
26:56	581762	N
26:56	582013	N
26:57	582268	N
26:58	582511	N
26:58	582777	N
26:59	583030	N
27:00	583277	N
27:00	583525	N
27:01	583777	N
27:02	584026	N
27:02	584276	N
27:03	584517	N
27:04	584762	N
27:05	585004	N
27:05	585259	N
27:06	585509	N
27:07	585749	N
27:07	585997	N
27:08	586250	N
27:09	586501	N
27:09	586754	N
27:10	586935	A
27:11	587214	N
27:11	587393	V
27:12	587660	V
27:13	587993	N
27:14	588240	N
27:14	588491	N
27:15	588736	N
27:16	588993	N
27:16	589244	N
27:17	589488	N
27:18	589728	N
27:18	589980	N
27:19	590227	N
27:20	590472	N
27:20	590646	A
27:21	590916	N
27:21	591091	V
27:22	591360	V
27:23	591679	N
27:24	591929	N
27:24	592168	N
27:25	592390	A
27:26	592658	e
27:26	592914	N
27:27	593156	N
27:28	593399	N
27:28	593638	N
27:29	593886	N
27:30	594139	N
27:31	594383	N
27:31	594566	A
27:32	594855	N
27:32	595042	V
27:33	595285	V
27:34	595631	N
27:34	595718	+
27:35	595825	V
27:35	596132	V
27:36	596304	V
27:37	596544	+
27:37	596654	N
27:37	596825	V
27:38	597159	N
27:39	597342	V
27:40	597665	N
27:40	597834	V
27:41	598152	N
27:42	598322	V
27:42	598648	N
27:43	598829	V
27:44	599145	N
27:44	599314	V
27:45	599646	N
27:46	599825	V
27:47	600155	N
27:47	600331	V
27:48	600649	N
27:48	600825	V
27:49	601155	N
27:50	601330	V
27:51	601640	N
27:51	601819	V
27:52	602153	N
27:53	602329	V
27:54	602646	N
27:54	602824	V
27:55	603138	N
27:55	603319	V
27:56	603642	N
27:57	603818	V
27:58	604121	N
27:58	604305	V
27:59	604623	N
28:00	604805	V
28:00	605111	N
28:01	605289	V
28:02	605598	N
28:02	605774	V
28:03	606092	N
28:04	606272	V
28:04	606574	N
28:05	606749	V
28:06	607068	N
28:06	607251	V
28:07	607559	N
28:08	607739	V
28:09	608056	N
28:09	608233	V
28:10	608557	N
28:10	608740	V
28:11	609045	N
28:12	609233	V
28:13	609547	N
28:13	609727	V
28:14	610032	N
28:15	610218	V
28:15	610533	N
28:16	610716	V
28:17	611028	N
28:17	611209	V
28:18	611526	N
28:19	611714	V
28:20	612012	N
28:20	612196	V
28:21	612503	N
28:21	612690	V
28:22	613012	N
28:23	613197	V
28:24	613502	N
28:24	613681	V
28:25	613992	N
28:26	614182	V
28:26	614487	N
28:27	614664	V
28:28	614967	N
28:28	615148	V
28:29	615454	N
28:30	615639	V
28:30	615951	N
28:31	616123	V
28:32	616443	N
28:32	616627	V
28:33	616915	e
28:34	617075	+
28:34	617180	N
28:35	617432	N
28:35	617677	N
28:36	617924	N
28:37	618186	N
28:37	618429	N
28:38	618628	A
28:39	618911	N
28:39	619188	N
28:40	619442	N
28:41	619690	N
28:42	619938	N
28:42	620118	A
28:43	620352	V
28:44	620676	N
28:44	620934	N
28:45	621182	N
28:46	621443	N
28:46	621701	N
28:47	621953	N
28:48	622197	N
28:49	622448	N
28:49	622698	N
28:50	622946	N
28:51	623200	N
28:51	623448	N
28:52	623694	N
28:53	623952	N
28:53	624206	N
28:54	624453	N
28:55	624702	N
28:55	624953	N
28:56	625206	N
28:57	625465	N
28:58	625714	N
28:58	625961	N
28:59	626221	N
29:00	626479	N
29:00	626733	N
29:01	626918	A
29:02	627199	N
29:02	627376	V
29:03	627622	V
29:04	627979	N
29:04	628158	V
29:05	628447	V
29:06	628741	N
29:07	628991	N
29:07	629235	N
29:08	629482	N
29:09	629726	N
29:09	629978	N
29:10	630232	N
29:11	630475	N
29:11	630716	N
29:12	630968	N
29:13	631221	N
29:14	631471	N
29:14	631715	N
29:15	631968	N
29:16	632214	N
29:16	632463	N
29:17	632715	N
29:18	632908	A
29:18	633185	e
29:19	633372	V
29:20	633625	V
29:21	633962	N
29:21	634210	N
29:22	634414	A
29:23	634714	N
29:23	634907	V
29:24	635160	V
29:25	635473	N
29:25	635733	N
29:26	635989	N
29:27	636244	N
29:28	636489	N
29:28	636736	N
29:29	636979	N
29:30	637233	N
29:30	637479	N
29:31	637722	N
29:32	637970	N
29:32	638218	N
29:33	638467	N
29:34	638718	N
29:34	638968	N
29:35	639222	N
29:36	639473	N
29:37	639732	N
29:37	639983	N
29:38	640229	N
29:39	640487	N
29:39	640744	N
29:40	640995	N
29:41	641239	N
29:41	641497	N
29:42	641748	N
29:43	642006	N
29:44	642265	N
29:44	642520	N
29:45	642765	N
29:46	643023	N
29:46	643279	N
29:47	643527	N
29:48	643774	N
29:48	644028	N
29:49	644283	N
29:50	644532	N
29:51	644783	N
29:51	645030	N
29:52	645278	N
29:53	645534	N
29:53	645738	V
29:54	646029	N
29:55	646211	V
29:55	646454	V
29:56	646793	N
29:57	646985	V
29:57	647278	V
29:58	647563	N
29:59	647819	N
30:00	648077	N
30:00	648334	N
30:01	648586	N
30:02	648839	N
30:03	649091	N
30:03	649349	N
30:04	649599	N
30:05	649849	N
