0:00	160	N
0:01	433	N
0:02	726	N
0:02	1061	N
0:03	1366	N
0:04	1651	N
0:05	1935	N
0:06	2223	N
0:06	2499	N
0:07	2793	N
0:08	3094	N
0:09	3402	N
0:10	3694	N
0:11	3986	N
0:11	4275	N
0:12	4542	N
0:13	4820	N
0:13	5006	|
0:14	5106	N
0:15	5442	N
0:15	5608	|
0:16	5783	N
0:16	6048	|
0:16	6085	N
0:17	6192	+
0:17	6299	V
0:18	6635	N
0:18	6823	V
0:19	7197	N
0:20	7415	V
0:21	7825	N
0:22	8026	V
0:23	8394	N
0:23	8582	V
0:24	8931	N
0:25	9130	V
0:26	9504	N
0:26	9710	V
0:28	10098	N
0:28	10306	V
0:29	10656	N
0:30	10844	V
0:31	11199	N
0:31	11392	V
0:32	11776	N
0:33	11992	V
0:33	12198	+
0:34	12404	N
0:35	12713	N
0:36	13012	N
0:36	13287	N
0:37	13574	N
0:38	13896	N
0:39	14237	N
0:40	14568	N
0:41	14897	N
0:42	15190	N
0:42	15465	N
0:43	15755	N
0:43	15804	|
0:44	15851	|
0:44	16103	N
0:44	16157	|
0:45	16309	|
0:45	16404	|
0:45	16478	N
0:46	16823	N
0:47	16997	|
0:47	17076	|
0:47	17113	N
0:48	17394	N
0:49	17680	N
0:49	17996	N
0:51	18362	N
0:51	18690	V
0:53	19125	N
0:53	19408	N
0:54	19694	N
0:55	19903	V
0:55	20157	V
0:57	20749	N
0:58	21122	N
0:59	21438	N
0:59	21556	~
1:00	21709	N
1:01	21998	N
1:01	22307	N
1:02	22627	N
1:03	22803	~
1:03	22860	V
1:04	23284	N
1:05	23602	N
1:06	23892	N
1:06	24076	V
1:07	24472	N
1:08	24678	V
1:09	25110	N
1:10	25421	N
1:11	25734	N
1:12	26021	N
1:13	26303	N
1:13	26585	N
1:14	26887	N
1:15	27224	N
1:16	27556	N
1:17	27890	N
1:18	28169	N
1:19	28451	N
1:19	28736	N
1:20	29035	N
1:21	29353	N
1:22	29658	N
1:22	29871	V
1:24	30246	N
1:24	30533	N
1:25	30828	N
1:26	31127	N
1:27	31432	N
1:28	31735	N
1:28	31940	V
1:29	32328	N
1:30	32511	V
1:31	32890	N
1:32	33181	N
1:33	33480	N
1:33	33580	+
1:33	33680	V
1:34	33948	|
1:34	34117	N
1:35	34334	V
1:36	34639	|
1:36	34721	N
1:36	34908	V
1:38	35291	N
1:38	35500	V
1:39	35937	N
1:40	36184	V
1:41	36598	N
1:41	36709	|
1:42	36805	V
1:43	37183	N
1:43	37416	V
1:45	37881	N
1:45	38144	V
1:47	38590	N
1:47	38801	V
1:48	39170	N
1:49	39371	V
1:50	39838	N
1:51	40109	V
1:51	40304	|
1:52	40353	|
1:52	40568	N
1:53	40807	V
1:53	41012	+
1:54	41218	N
1:55	41564	N
1:56	41998	N
1:57	42409	N
1:58	42762	N
1:59	43084	N
2:00	43389	N
2:01	43703	N
2:02	44076	N
2:03	44468	N
2:04	44807	N
2:05	45113	N
2:06	45416	N
2:07	45734	N
2:07	46055	N
2:08	46399	N
2:09	46520	+
2:09	46642	V
2:10	47068	N
2:11	47276	V
2:12	47648	N
2:12	47879	V
2:13	48067	+
2:14	48256	N
2:14	48568	N
2:15	48899	N
2:16	49220	N
2:17	49519	N
2:18	49790	N
2:19	50075	N
2:19	50374	N
2:20	50671	N
2:21	50995	N
2:22	51314	N
2:23	51615	N
2:24	51886	N
2:24	51985	+
2:24	52084	V
2:25	52480	N
2:26	52689	V
2:27	53114	N
2:28	53319	V
2:28	53521	+
2:29	53724	N
2:30	54009	N
2:30	54295	N
2:31	54520	V
2:32	54936	N
2:33	55260	N
2:34	55564	N
2:35	55876	N
2:36	56181	N
2:36	56387	V
2:37	56745	N
2:38	57027	N
2:39	57316	N
2:40	57606	N
2:40	57829	V
2:41	57996	~
2:41	58189	N
2:42	58457	N
2:43	58724	N
2:43	58927	V
2:44	59329	N
2:45	59661	N
2:46	59989	N
2:47	60280	N
2:48	60556	N
2:48	60747	V
2:49	61116	N
2:50	61337	V
2:51	61787	N
2:52	62126	N
2:53	62427	N
2:54	62705	N
2:54	62992	N
2:55	63300	N
2:56	63674	N
2:57	64004	N
2:58	64327	N
2:59	64635	N
2:59	64744	|
3:00	64925	N
3:01	65223	N
3:01	65403	~
3:02	65572	N
3:02	65866	V
3:04	66266	N
3:05	66600	N
3:05	66919	N
3:06	67214	N
3:07	67530	N
3:08	67871	N
3:09	68108	~
3:09	68231	N
3:10	68545	N
3:11	68863	N
3:12	69160	N
3:12	69445	N
3:13	69534	~
3:13	69655	V
3:14	70062	N
3:15	70411	N
3:16	70750	N
3:17	71059	N
3:18	71335	N
3:18	71612	N
3:19	71914	N
3:20	72210	N
3:21	72476	V
3:22	72875	N
3:23	73178	N
3:24	73457	N
3:24	73729	N
3:25	74030	N
3:26	74350	N
3:27	74704	N
3:28	74966	V
3:29	75348	N
3:30	75631	N
3:30	75911	N
3:31	76205	N
3:32	76541	N
3:33	76884	N
3:34	77211	N
3:35	77515	N
3:36	77814	N
3:36	78011	V
3:37	78389	N
3:38	78590	V
3:39	79001	N
3:40	79310	N
3:41	79613	N
3:41	79806	V
3:42	80151	N
3:43	80440	N
3:44	80724	N
3:45	81043	N
3:46	81390	N
3:47	81727	N
3:47	82008	N
3:48	82272	N
3:49	82467	V
3:50	82857	N
3:50	83078	V
3:52	83525	N
3:52	83868	N
3:53	84157	N
3:54	84427	N
3:55	84738	N
3:56	84968	V
3:57	85403	N
3:58	85715	N
3:58	86038	N
3:59	86316	N
4:00	86587	N
4:01	86881	N
4:02	87188	N
4:03	87530	N
4:04	87863	N
4:05	88224	N
4:06	88580	N
4:06	88884	N
4:07	89191	N
4:08	89525	N
4:09	89879	N
4:10	90222	N
4:11	90502	V
4:12	90927	N
4:13	91233	N
4:14	91543	N
4:15	91877	N
4:16	92234	N
4:17	92569	N
4:18	92897	N
4:18	93191	N
4:19	93486	N
4:20	93778	N
4:21	94087	N
4:22	94406	N
4:23	94706	N
4:23	94995	N
4:24	95280	N
4:25	95577	N
4:26	95796	V
4:27	96210	N
4:28	96517	N
4:28	96808	N
4:29	97094	N
4:30	97386	N
4:31	97677	N
4:32	97976	N
4:33	98298	N
4:33	98597	N
4:34	98898	N
4:35	99199	N
4:36	99491	N
4:36	99584	~
4:36	99698	V
4:37	100064	N
4:38	100306	V
4:39	100702	N
4:40	101018	N
4:41	101328	N
4:42	101607	N
4:42	101838	~
4:43	101884	N
4:43	102163	N
4:44	102470	N
4:45	102779	N
4:46	103096	N
4:47	103386	N
4:47	103663	N
4:48	103937	N
4:49	104223	N
4:50	104540	N
4:51	104773	|
4:51	104860	N
4:52	105162	N
4:52	105451	N
4:53	105654	V
4:54	106047	N
4:55	106354	N
4:56	106652	N
4:57	106978	N
4:58	107290	N
4:58	107485	V
4:59	107889	N
5:00	108179	N
5:01	108481	N
5:02	108771	N
5:03	109090	N
5:03	109411	N
5:04	109628	V
5:05	110002	N
5:06	110188	V
5:07	110568	N
5:07	110867	N
5:08	110940	|
5:08	111184	N
5:09	111361	|
5:09	111425	|
5:09	111525	N
5:10	111838	N
5:11	112133	N
5:12	112394	N
5:12	112678	N
5:13	113004	N
5:14	113312	N
5:15	113621	N
5:16	113920	N
5:17	114213	N
5:17	114476	N
5:18	114749	N
5:19	115063	N
5:20	115386	N
5:21	115701	N
5:22	115998	N
5:22	116187	|
5:23	116300	N
5:23	116378	|
5:23	116594	N
5:24	116872	N
5:25	117150	N
5:26	117457	N
5:27	117763	N
5:27	118053	N
5:28	118247	V
5:29	118652	N
5:30	118919	N
5:31	119182	N
5:31	119461	N
5:32	119786	N
5:33	119994	|
5:33	120093	N
5:34	120400	N
5:35	120677	N
5:35	120941	N
5:36	121210	N
5:37	121483	N
5:38	121784	N
5:39	122124	N
5:40	122441	N
5:40	122736	N
5:41	123018	N
5:42	123297	N
5:42	123399	+
5:43	123501	V
5:44	123880	N
5:44	124101	V
5:45	124494	N
5:46	124708	V
5:47	125078	N
5:47	125269	V
5:48	125629	N
5:49	125828	V
5:50	126214	N
5:51	126430	V
5:52	126849	N
5:52	127063	V
5:53	127428	N
5:54	127617	V
5:55	128000	N
5:56	128214	V
5:57	128744	N
5:58	128996	V
5:59	129411	N
6:00	129610	V
6:01	129984	N
6:01	130242	V
6:03	130826	N
6:04	131119	V
6:05	131547	N
6:05	131738	V
6:06	132103	N
6:07	132308	V
6:08	132760	N
6:09	133009	V
6:10	133499	N
6:11	133723	V
6:12	134138	N
6:13	134345	V
6:14	134760	N
6:14	134995	V
6:16	135490	N
6:17	135732	V
6:18	136139	N
6:18	136337	V
6:19	136725	N
6:20	136943	V
6:21	137355	N
6:22	137613	V
6:23	138087	N
6:24	138293	V
6:25	138664	N
6:25	138864	V
6:26	139263	N
6:27	139476	V
6:28	139929	N
6:29	140146	V
6:30	140519	N
6:30	140713	V
6:31	141113	N
6:32	141327	V
6:33	141746	N
6:34	141966	V
6:35	142382	N
6:36	142580	V
6:37	142952	N
6:37	143167	V
6:38	143583	N
6:39	143795	V
6:40	144195	N
6:41	144433	V
6:42	144831	N
6:42	145029	V
6:43	145406	N
6:44	145628	V
6:45	146029	N
6:46	146241	V
6:47	146669	N
6:47	146871	V
6:48	147235	N
6:49	147434	V
6:50	147841	N
6:51	148074	V
6:52	148457	N
6:52	148675	V
6:54	149063	N
6:54	149259	V
6:55	149629	N
6:56	149849	V
6:57	150245	N
6:57	150455	V
6:59	150867	N
6:59	151103	V
7:00	151501	N
7:01	151708	V
7:02	152103	N
7:03	152326	V
7:04	152743	N
7:04	152995	V
7:06	153410	N
7:06	153613	V
7:07	153979	N
7:08	154196	V
7:09	154638	N
7:10	154871	V
7:10	155077	+
7:11	155284	N
7:12	155591	N
7:13	155895	N
7:13	156192	N
7:14	156533	N
7:15	156888	N
7:16	157065	V
7:17	157507	N
7:18	157816	N
7:19	158133	N
7:20	158436	N
7:20	158757	N
7:21	158970	V
7:22	159388	N
7:23	159574	V
7:24	159975	N
7:25	160286	N
7:26	160590	N
7:26	160902	N
7:27	161207	N
7:28	161425	V
7:29	161842	N
7:30	162150	N
7:31	162445	N
7:32	162745	N
7:32	163046	N
7:33	163260	V
7:34	163686	N
7:35	163985	N
7:36	164270	N
7:37	164562	N
7:37	164871	N
7:38	165189	N
7:39	165395	V
7:40	165824	N
7:41	166119	N
7:42	166400	N
7:43	166696	N
7:43	167003	N
7:44	167209	V
7:45	167624	N
7:46	167935	N
7:47	168254	N
7:48	168542	N
7:48	168836	N
7:49	169130	N
7:50	169337	V
7:51	169736	N
7:52	170054	N
7:53	170376	N
7:54	170662	N
7:54	170948	N
7:55	171247	N
7:56	171576	N
7:57	171899	N
7:58	172217	N
7:59	172522	N
8:00	172824	N
8:00	173121	N
8:01	173441	N
8:02	173774	N
8:03	174110	N
8:04	174433	N
8:05	174757	N
8:05	174866	+
8:06	174976	V
8:07	175431	N
8:07	175644	V
8:09	176094	N
8:09	176315	V
8:10	176758	N
8:11	176970	V
8:12	177384	N
8:13	177623	V
8:14	178101	N
8:15	178373	V
8:16	178880	N
8:17	179107	V
8:18	179493	N
8:19	179702	V
8:20	180190	N
8:21	180433	V
8:22	180896	N
8:23	181116	V
8:24	181507	N
8:24	181705	V
8:26	182174	N
8:26	182443	V
8:28	182903	N
8:28	183132	V
8:29	183526	N
8:30	183716	V
8:31	184119	N
8:32	184357	V
8:33	184839	N
8:34	185054	V
8:35	185483	N
8:35	185699	V
8:36	186092	N
8:37	186293	V
8:38	186723	N
8:39	186971	V
8:40	187395	N
8:41	187614	V
8:42	188007	N
8:42	188200	V
8:43	188391	+
8:43	188582	N
8:44	188931	N
8:45	189310	N
8:46	189644	N
8:47	189945	N
8:48	190232	N
8:49	190517	N
8:50	190820	N
8:51	191168	N
8:51	191517	N
8:52	191826	N
8:53	192130	N
8:54	192322	V
8:55	192709	N
8:55	192909	V
8:56	193307	N
8:57	193641	N
8:58	193954	N
8:59	194254	N
9:00	194534	N
9:01	194823	N
9:01	195003	V
9:02	195435	N
9:03	195821	N
9:04	196161	N
9:05	196349	V
9:06	196743	N
9:07	196959	V
9:08	197339	N
9:09	197686	N
9:10	198071	N
9:11	198395	N
9:11	198687	N
9:12	198978	N
9:13	199283	N
9:14	199605	N
9:15	199835	V
9:16	200269	N
9:17	200594	N
9:18	200894	N
9:18	201185	N
9:19	201408	V
9:20	201780	N
9:21	202093	N
9:22	202452	N
9:23	202803	N
9:23	203017	V
9:24	203374	N
9:25	203667	N
9:26	203976	N
9:27	204285	N
9:28	204628	N
9:29	204970	N
9:30	205262	N
9:30	205534	N
9:31	205732	V
9:32	206139	N
9:33	206343	V
9:34	206759	N
9:35	207075	N
9:36	207363	N
9:36	207636	N
9:37	207838	V
9:38	208223	N
9:39	208545	N
9:40	208852	N
9:41	209180	N
9:41	209489	N
9:42	209769	N
9:43	210054	N
9:44	210354	N
9:45	210668	N
9:46	210971	N
9:46	211175	V
9:47	211616	N
9:48	211811	V
9:49	212185	N
9:50	212487	N
9:51	212816	N
9:52	213134	N
9:52	213448	N
9:53	213744	N
9:54	214029	N
9:55	214306	N
9:56	214602	N
9:57	214922	N
9:57	215232	N
9:58	215527	N
9:59	215845	N
10:00	216143	N
10:01	216427	N
10:01	216716	N
10:02	217024	N
10:03	217339	N
10:04	217647	N
10:05	217973	N
10:06	218279	N
10:07	218566	N
10:07	218754	V
10:08	219167	N
10:09	219516	N
10:10	219854	N
10:11	219961	+
10:11	220068	V
10:12	220459	N
10:12	220652	V
10:14	221041	N
10:14	221250	V
10:15	221597	|
10:15	221694	N
10:16	221933	V
10:17	222151	+
10:17	222370	N
10:18	222678	N
10:19	223003	N
10:20	223337	N
10:21	223663	N
10:22	223983	N
10:22	224191	V
10:23	224630	N
10:24	224922	N
10:25	225223	N
10:26	225542	N
10:27	225851	N
10:28	226171	N
10:29	226520	N
10:30	226848	N
10:30	227128	N
10:31	227417	N
10:32	227609	V
10:33	228040	N
10:34	228356	N
10:35	228673	N
10:36	228976	N
10:36	229261	N
10:37	229561	N
10:38	229890	N
10:39	230219	N
10:40	230525	N
10:41	230831	N
10:42	231134	N
10:42	231433	N
10:43	231737	N
10:44	232058	N
10:45	232381	N
10:46	232685	N
10:47	233004	N
10:48	233321	N
10:48	233631	N
10:49	233838	V
10:50	234251	N
10:51	234455	V
10:52	234884	N
10:53	235219	N
10:54	235516	N
10:55	235814	N
10:55	236115	N
10:56	236451	N
10:57	236779	N
10:58	237097	N
10:59	237400	N
11:00	237702	N
11:01	238006	N
11:01	238306	N
11:02	238624	N
11:03	238955	N
11:04	239272	N
11:05	239596	N
11:06	239909	N
11:07	240124	V
11:08	240533	N
11:09	240868	N
11:09	241183	N
11:10	241511	N
11:11	241841	N
11:12	242139	N
11:13	242348	V
11:14	242754	N
11:15	243105	N
11:16	243435	N
11:16	243541	+
11:16	243648	V
11:17	244058	N
11:18	244283	V
11:19	244689	N
11:20	244919	V
11:21	245381	N
11:22	245605	V
11:22	245812	+
11:23	246020	N
11:24	246321	N
11:25	246638	N
11:26	246970	N
11:26	247287	N
11:27	247611	N
11:28	247928	N
11:29	248236	N
11:30	248543	N
11:31	248853	N
11:32	249173	N
11:33	249481	N
11:33	249827	N
11:34	250160	N
11:35	250267	+
11:35	250374	V
11:36	250763	N
11:37	250958	V
11:38	251367	N
11:38	251581	V
11:40	252013	N
11:40	252222	V
11:41	252612	N
11:42	252803	V
11:43	253211	N
11:43	253425	V
11:45	253842	N
11:45	254058	V
11:46	254474	N
11:47	254664	V
11:48	255046	N
11:49	255251	V
11:50	255675	N
11:50	255917	V
11:52	256320	N
11:52	256539	V
11:53	256952	N
11:54	257149	V
11:55	257528	N
11:55	257731	V
11:56	257935	+
11:57	258139	N
11:57	258457	N
11:58	258785	N
11:59	259079	N
12:00	259356	N
12:01	259641	N
12:02	259963	N
12:03	260294	N
12:03	260617	N
12:04	260926	N
12:05	261226	N
12:06	261503	N
12:06	261709	V
12:08	262127	N
12:09	262469	N
12:10	262800	N
12:10	263113	N
12:11	263438	N
12:12	263736	N
12:13	263912	V
12:14	264344	N
12:15	264685	N
12:16	265000	N
12:16	265314	N
12:17	265623	N
12:18	265906	N
12:19	266202	N
12:20	266512	N
12:21	266918	N
12:22	267132	V
12:23	267590	N
12:24	267882	N
12:24	268172	N
12:25	268469	N
12:26	268787	N
12:27	269176	N
12:28	269520	N
12:29	269824	N
12:30	270117	N
12:31	270441	N
12:32	270775	N
12:33	271113	N
12:34	271465	N
12:34	271799	N
12:35	271961	V
12:36	272395	N
12:37	272709	N
12:38	273020	N
12:39	273346	N
12:40	273706	N
12:41	274049	N
12:42	274356	N
12:42	274649	N
12:43	274733	+
12:43	274817	V
12:44	275273	N
12:45	275480	V
12:46	275991	N
12:47	276204	V
12:48	276600	N
12:48	276791	V
12:50	277227	N
12:50	277447	V
12:52	277922	N
12:52	278156	V
12:53	278578	N
12:54	278769	V
12:55	279176	N
12:56	279391	V
12:57	279817	N
12:57	280034	V
12:59	280490	N
12:59	280700	V
13:00	281082	N
13:01	281278	V
13:02	281684	N
13:03	281890	V
13:04	282335	N
13:04	282583	V
13:06	282983	N
13:06	283174	V
13:07	283571	N
13:08	283806	V
13:09	284283	N
13:10	284541	V
13:11	284980	N
13:12	285178	V
13:13	285563	N
13:13	285776	V
13:15	286236	N
13:15	286462	V
13:16	286891	N
13:17	287114	V
13:18	287311	+
13:18	287508	N
13:19	287807	N
13:20	288111	N
13:21	288442	N
13:22	288763	N
13:23	289122	N
13:23	289352	V
13:24	289746	N
13:25	290043	N
13:26	290355	N
13:27	290687	N
13:28	291009	N
13:29	291343	N
13:29	291531	V
13:30	291925	N
13:31	292213	N
13:32	292525	N
13:33	292862	N
13:34	293184	N
13:35	293504	N
13:36	293806	N
13:36	294101	N
13:37	294404	N
13:38	294729	N
13:39	295041	N
13:40	295348	N
13:41	295654	N
13:42	295966	N
13:42	296259	N
13:43	296546	N
13:44	296847	N
13:45	297159	N
13:46	297489	N
13:47	297806	N
13:48	298116	N
13:48	298395	N
13:49	298688	N
13:50	298986	N
13:51	299300	N
13:52	299626	N
13:53	299939	N
13:53	300119	V
13:54	300530	N
13:55	300839	N
13:56	301150	N
13:57	301462	N
13:58	301772	N
13:59	302086	N
13:59	302390	N
14:00	302682	N
14:01	302976	N
14:02	303291	N
14:03	303600	N
14:04	303924	N
14:05	304256	N
14:06	304575	N
14:06	304860	N
14:07	305161	N
14:08	305483	N
14:09	305816	N
14:10	306163	N
14:11	306495	N
14:12	306819	N
14:13	307115	N
14:14	307448	N
14:15	307815	N
14:16	308172	N
14:16	308495	N
14:17	308809	N
14:18	308982	V
14:19	309417	N
14:20	309750	N
14:21	310110	N
14:22	310447	N
14:23	310781	N
14:24	311144	N
14:25	311459	N
14:26	311761	N
14:26	311958	V
14:27	312453	N
14:28	312783	N
14:29	313097	N
14:30	313417	N
14:31	313726	N
14:32	314033	N
14:33	314374	N
14:34	314733	N
14:35	315078	N
14:36	315377	N
14:36	315690	N
14:37	315997	N
14:38	316326	N
14:39	316678	N
14:40	317012	N
14:41	317317	N
14:42	317608	N
14:43	317939	N
14:44	318258	N
14:44	318582	N
14:45	318898	N
14:46	319112	V
14:47	319521	N
14:48	319823	N
14:49	320151	N
14:50	320462	N
14:51	320768	N
14:51	321094	N
14:52	321436	N
14:53	321760	N
14:54	322045	N
14:55	322361	N
14:56	322680	N
14:57	323007	N
14:58	323345	N
14:59	323671	N
14:59	323965	N
15:00	324244	N
15:01	324565	N
15:02	324889	N
15:03	325219	N
15:04	325542	N
15:05	325857	N
15:05	326148	N
15:06	326446	N
15:07	326785	N
15:08	327111	N
15:09	327442	N
15:10	327792	N
15:11	328145	N
15:12	328458	N
15:13	328763	N
15:14	329120	N
15:15	329464	N
15:16	329826	N
15:17	330205	N
15:17	330398	V
15:18	330837	N
15:19	331165	N
15:20	331552	N
15:21	331919	N
15:23	332291	N
15:23	332634	N
15:24	332940	N
15:25	333258	N
15:26	333692	N
15:27	334046	N
15:28	334412	N
15:29	334754	N
15:30	335068	N
15:31	335392	N
15:32	335752	N
15:33	336136	N
15:34	336468	N
15:35	336792	N
15:36	337108	N
15:37	337429	N
15:38	337753	N
15:39	338108	N
15:40	338448	N
15:41	338793	N
15:42	339124	N
15:42	339418	N
15:43	339723	N
15:44	340035	N
15:45	340393	N
15:46	340743	N
15:47	341065	N
15:48	341370	N
15:48	341529	V
15:49	341977	N
15:50	342302	N
15:51	342690	N
15:52	343008	N
15:53	343318	N
15:54	343606	N
15:55	343905	N
15:56	344221	N
15:57	344546	N
15:58	344884	N
15:58	345212	N
15:59	345538	N
16:00	345844	N
16:01	346131	N
16:02	346431	N
16:03	346749	N
16:03	347001	V
16:05	347405	N
16:05	347708	N
16:06	347999	N
16:07	348287	N
16:08	348601	N
16:09	348927	N
16:10	349282	N
16:11	349585	N
16:11	349888	N
16:12	350178	N
16:13	350475	N
16:14	350801	N
16:15	351130	N
16:16	351487	N
16:17	351802	N
16:18	352136	N
16:19	352449	N
16:19	352765	N
16:20	353082	N
16:21	353418	N
16:22	353763	N
16:23	354083	N
16:24	354403	N
16:25	354717	N
16:26	355029	N
16:27	355364	N
16:28	355800	N
16:29	356168	N
16:30	356462	N
16:31	356761	N
16:31	357073	N
16:32	357393	N
16:33	357720	N
16:34	358097	N
16:35	358423	N
16:36	358713	N
16:36	358918	V
16:38	359349	N
16:39	359686	N
16:40	360009	N
16:40	360357	N
16:41	360660	N
16:42	360972	N
16:43	361302	N
16:44	361629	N
16:45	361951	N
16:46	362276	N
16:47	362647	N
16:48	362955	N
16:48	363127	V
16:49	363573	N
16:50	363916	N
16:51	364239	N
16:52	364587	N
16:53	364933	N
16:54	365225	N
16:54	365382	V
16:56	365846	N
16:57	366207	N
16:58	366552	N
16:59	366885	N
17:00	367217	N
17:00	367514	N
17:01	367838	N
17:02	368185	N
17:03	368516	N
17:04	368831	N
17:05	369169	N
17:06	369489	N
17:07	369803	N
17:08	370117	N
17:08	370220	+
17:08	370323	V
17:09	370771	N
17:10	370983	V
17:11	371451	N
17:12	371634	V
17:12	371835	+
17:13	372037	N
17:14	372333	N
17:15	372732	N
17:16	373069	N
17:17	373397	N
17:18	373723	N
17:18	374020	N
17:19	374358	N
17:20	374589	V
17:21	375101	N
17:22	375445	N
17:23	375763	N
17:24	376076	N
17:25	376411	N
17:26	376802	N
17:27	377198	N
17:28	377545	N
17:29	377868	N
17:30	378215	N
17:31	378550	N
17:32	378913	N
17:33	379305	N
17:34	379595	V
17:35	379994	N
17:36	380326	N
17:37	380636	N
17:38	380959	N
17:39	381315	N
17:40	381650	N
17:41	382002	N
17:41	382310	N
17:42	382629	N
17:43	382927	N
17:44	383276	N
17:45	383645	N
17:46	383991	N
17:47	384296	N
17:48	384596	N
17:49	384895	N
17:49	385112	V
17:50	385559	N
17:51	385776	V
17:52	386210	N
17:53	386519	N
17:54	386830	N
17:55	387140	N
17:56	387451	N
17:57	387776	N
17:57	387976	V
17:58	388420	N
17:59	388731	N
18:00	389030	N
18:01	389345	N
18:02	389655	N
18:03	390002	N
18:04	390361	N
18:05	390704	N
18:06	390997	N
18:06	391290	N
18:07	391591	N
18:08	391913	N
18:09	392266	N
18:10	392597	N
18:11	392902	N
18:12	393202	N
18:13	393528	N
18:14	393857	N
18:14	394190	N
18:15	394522	N
18:16	394868	N
18:17	395186	N
18:18	395491	N
18:19	395821	N
18:20	396158	N
18:21	396496	N
18:22	396850	N
18:23	397218	N
18:24	397535	N
18:25	397832	N
18:26	398168	N
18:26	398492	N
18:27	398833	N
18:28	399196	N
18:29	399520	N
18:30	399790	N
18:31	400133	N
18:32	400557	N
18:33	400945	N
18:34	401286	N
18:35	401615	N
18:36	401918	N
18:37	402220	N
18:37	402408	V
18:39	402966	N
18:40	403327	N
18:41	403660	N
18:42	403979	N
18:43	404289	N
18:43	404614	N
18:44	404971	N
18:45	405316	N
18:46	405641	N
18:47	405970	N
18:48	406276	N
18:49	406572	N
18:50	406883	N
18:51	407227	N
18:52	407590	N
18:53	407926	N
18:53	408224	N
18:54	408510	N
18:55	408816	N
18:56	409142	N
18:57	409348	V
18:58	409841	N
18:59	410161	N
19:00	410451	N
19:00	410757	N
19:01	411071	N
19:02	411429	N
19:03	411785	N
19:04	412010	V
19:05	412422	N
19:06	412618	V
19:07	413030	N
19:08	413342	N
19:09	413671	N
19:10	414005	N
19:10	414352	N
19:11	414677	N
19:12	414963	N
19:13	415132	V
19:14	415576	N
19:15	415938	N
19:16	416305	N
19:17	416639	N
19:18	416946	N
19:18	417238	N
19:19	417573	N
19:20	417940	N
19:21	418207	V
19:23	418683	N
19:23	419017	N
19:24	419316	N
19:25	419570	A
19:26	419978	N
19:27	420322	N
19:28	420713	N
19:29	421055	N
19:30	421383	N
19:31	421706	N
19:32	422031	N
19:33	422395	N
19:34	422805	N
19:35	423212	N
19:36	423554	N
19:37	423873	N
19:38	424206	N
19:39	424565	N
19:40	424987	N
19:41	425404	N
19:42	425729	N
19:43	426041	N
19:44	426363	N
19:45	426711	N
19:46	427091	N
19:47	427496	N
19:48	427828	N
19:49	428136	N
19:50	428478	N
19:51	428836	N
19:52	429185	N
19:53	429529	N
19:54	429865	N
19:54	430176	N
19:55	430498	N
19:56	430833	N
19:57	431168	N
19:58	431501	N
19:59	431859	N
20:00	432181	N
20:01	432487	N
20:02	432800	N
20:03	433130	N
20:04	433457	N
20:04	433789	N
20:05	434123	N
20:06	434429	N
20:07	434729	N
20:08	435058	N
20:09	435293	V
20:09	435497	~
20:10	435745	N
20:11	436051	N
20:12	436370	N
20:12	436652	N
20:13	436958	N
20:14	437284	N
20:15	437603	N
20:16	437916	N
20:16	438109	V
20:18	438552	N
20:19	438868	N
20:19	439186	N
20:20	439489	N
20:21	439810	N
20:22	440116	N
20:23	440321	V
20:24	440792	N
20:25	441105	N
20:26	441410	N
20:26	441613	V
20:28	442103	N
20:29	442481	N
20:30	442817	N
20:30	443130	N
20:31	443441	N
20:32	443559	~
20:32	443748	N
20:33	444070	N
20:34	444304	V
20:35	444750	N
20:36	445062	N
20:37	445384	N
20:38	445762	N
20:39	446136	N
20:40	446470	N
20:41	446793	N
20:41	447002	V
20:42	447381	N
20:43	447709	N
20:44	448059	N
20:45	448391	N
20:46	448711	N
20:46	448916	V
20:48	449308	N
20:48	449623	N
20:49	449980	N
20:50	450330	N
20:51	450552	~
20:51	450650	N
20:52	450942	N
20:53	451248	N
20:54	451537	N
20:55	451847	N
20:55	451982	~
20:56	452173	N
20:56	452500	N
20:57	452704	V
20:58	453095	N
20:59	453430	N
21:00	453718	N
21:01	453987	N
21:01	454287	N
21:02	454510	V
21:03	454917	N
21:04	455135	V
21:05	455513	N
21:06	455795	N
21:06	456055	N
21:07	456339	N
21:08	456688	N
21:09	457013	N
21:10	457342	N
21:11	457637	N
21:12	457921	N
21:12	458183	N
21:13	458476	N
21:14	458817	N
21:15	459091	V
21:16	459467	N
21:17	459751	N
21:17	460034	N
21:18	460318	N
21:19	460605	N
21:20	460901	N
21:21	461226	N
21:22	461546	N
21:22	461836	N
21:23	462126	N
21:24	462409	N
21:24	462595	V
21:26	462987	N
21:26	463310	N
21:27	463677	N
21:29	464040	N
21:29	464360	N
21:30	464458	+
21:30	464556	V
21:31	464918	N
21:32	465156	V
21:33	465643	N
21:34	465926	V
21:34	466148	+
21:35	466370	N
21:36	466665	N
21:37	466936	N
21:37	467232	N
21:38	467632	N
21:39	467954	V
21:40	468125	"
21:41	468558	N
21:42	468869	N
21:43	469165	N
21:44	469517	N
21:45	469936	N
21:46	470324	N
21:46	470473	+
21:47	470622	V
21:48	471026	N
21:48	471218	V
21:50	471622	N
21:50	471951	V
21:51	472120	"
21:51	472224	+
21:52	472497	N
21:53	472898	N
21:54	473194	N
21:55	473486	N
21:56	473784	N
21:56	474119	N
21:57	474423	V
21:58	474628	"
21:59	474916	N
22:00	475246	N
22:00	475517	N
22:01	475704	V
22:02	476142	N
22:03	476484	N
22:04	476812	N
22:05	477124	N
22:06	477432	N
22:06	477706	N
22:07	477812	+
22:07	477919	V
22:08	478326	N
22:09	478544	V
22:10	478967	N
22:11	479180	V
22:11	479391	+
22:12	479602	N
22:13	479895	N
22:13	480202	N
22:14	480496	N
22:15	480793	N
22:16	481091	N
22:17	481400	N
22:18	481729	N
22:18	482019	N
22:19	482242	V
22:20	482615	N
22:21	482939	N
22:22	483275	N
22:23	483600	N
22:24	483890	N
22:24	484173	N
22:25	484460	N
22:26	484759	N
22:27	485066	N
22:28	485375	N
22:29	485691	N
22:29	485873	V
22:30	486267	N
22:31	486583	N
22:32	486906	N
22:33	487211	N
22:34	487520	N
22:35	487849	N
22:35	488141	N
22:36	488448	N
22:37	488781	N
22:38	489125	N
22:39	489440	N
22:40	489758	N
22:41	490136	N
22:42	490463	N
22:43	490796	N
22:43	490951	~
22:44	491114	N
22:45	491445	N
22:45	491747	N
22:46	492077	N
22:47	492438	N
22:48	492746	N
22:49	492993	V
22:50	493430	N
22:51	493845	N
22:52	494229	N
22:53	494573	N
22:54	494880	N
22:55	495204	N
22:56	495569	N
22:57	495927	N
22:58	496273	N
22:58	496383	~
22:59	496604	N
23:00	496905	N
23:01	497194	N
23:02	497538	N
23:03	497920	N
23:04	498272	N
23:05	498601	N
23:05	498892	N
23:06	499174	N
23:07	499475	N
23:08	499811	N
23:09	500159	N
23:10	500497	N
23:11	500793	N
23:11	500975	V
23:12	501402	N
23:13	501711	N
23:14	502037	N
23:15	502377	N
23:16	502699	N
23:17	503008	N
23:17	503188	V
23:18	503607	N
23:19	503908	N
23:20	504112	V
23:21	504546	N
23:22	504898	N
23:23	505216	N
23:24	505507	N
23:24	505596	+
23:24	505686	V
23:25	506047	N
23:26	506260	V
23:27	506746	N
23:28	506983	V
23:29	507386	N
23:29	507572	V
23:30	507952	N
23:31	508158	V
23:32	508601	N
23:33	508845	V
23:34	509267	N
23:35	509470	V
23:36	509854	N
23:36	510056	V
23:37	510468	N
23:38	510689	V
23:39	511171	N
23:40	511390	V
23:41	511817	N
23:42	512023	V
23:43	512428	N
23:43	512627	V
23:45	513093	N
23:45	513353	V
23:47	513805	N
23:47	514029	V
23:48	514426	N
23:49	514637	V
23:50	515050	N
23:51	515318	V
23:53	515897	N
23:53	516149	V
23:54	516541	N
23:55	516761	V
23:56	517217	N
23:57	517473	V
23:58	518009	N
23:59	518265	V
24:00	518666	N
24:01	518875	V
24:02	519327	N
24:03	519580	V
24:04	520074	N
24:05	520320	V
24:06	520721	N
24:06	520918	V
24:08	521356	N
24:08	521595	V
24:10	522050	N
24:10	522281	V
24:11	522708	N
24:12	522916	V
24:13	523329	N
24:14	523564	V
24:15	523979	N
24:16	524190	V
24:17	524605	N
24:17	524826	V
24:18	525221	N
24:19	525417	V
24:20	525849	N
24:21	526058	V
24:21	526272	+
24:22	526487	N
24:23	526818	N
24:24	527125	N
24:24	527393	N
24:25	527677	N
24:26	527902	V
24:27	528298	N
24:28	528644	N
24:29	528969	N
24:30	529269	N
24:30	529541	N
24:31	529856	N
24:32	530198	N
24:33	530451	V
24:33	530597	~
24:34	530829	N
24:35	531138	N
24:36	531428	N
24:36	531714	N
24:37	532022	N
24:38	532252	V
24:39	532643	N
24:40	532977	N
24:41	533301	N
24:41	533494	V
24:42	533726	~
24:42	533873	N
24:43	534059	V
24:44	534500	N
24:45	534829	N
24:46	535033	V
24:47	535485	N
24:48	535792	N
24:49	536057	A
24:49	536395	N
24:51	536783	N
24:52	537127	N
24:52	537450	N
24:53	537756	N
24:54	538056	N
24:55	538269	V
24:56	538700	N
24:57	539092	N
24:58	539432	N
24:59	539676	~
24:59	539725	N
25:00	540093	N
25:01	540406	N
25:02	540739	N
25:02	541078	N
25:03	541426	N
25:04	541735	N
25:05	541967	V
25:06	542358	N
25:07	542562	V
25:07	542711	~
25:08	542955	N
25:09	543277	N
25:10	543639	N
25:11	543977	N
25:11	544278	N
25:12	544546	N
25:13	544864	N
25:14	545166	N
25:15	545497	N
25:16	545835	N
25:17	546145	N
25:17	546435	N
25:18	546672	~
25:18	546730	N
25:19	547036	N
25:20	547341	N
25:21	547656	N
25:22	547975	N
25:23	548285	N
25:23	548568	N
25:24	548857	N
25:25	549170	N
25:25	549278	~
25:26	549467	N
25:27	549754	N
25:28	550088	N
25:28	550413	N
25:29	550719	N
25:30	550907	V
25:31	551294	N
25:32	551590	N
25:32	551767	V
25:33	552221	N
25:34	552554	N
25:35	552845	N
25:36	553126	N
25:37	553420	N
25:38	553688	N
25:38	553876	V
25:39	554361	N
25:40	554679	N
25:41	554979	N
25:42	555262	N
25:43	555563	N
25:44	555872	N
25:45	556200	N
25:45	556513	N
25:46	556846	N
25:47	557043	V
25:48	557465	N
25:49	557732	N
25:50	558082	N
25:51	558424	N
25:52	558761	N
25:52	558965	V
25:53	559405	N
25:54	559593	V
25:55	559989	N
25:56	560310	N
25:57	560669	N
25:58	561042	N
25:59	561362	N
26:00	561664	N
26:01	561961	N
26:01	562281	N
26:02	562621	N
26:03	562990	N
26:04	563351	N
26:05	563647	N
26:06	563854	V
26:07	564241	N
26:08	564588	N
26:09	564928	N
26:10	565253	N
26:10	565504	V
26:11	565892	N
26:12	566193	N
26:13	566494	N
26:14	566829	N
26:15	567049	V
26:16	567475	N
26:17	567814	N
26:18	568112	N
26:18	568390	N
26:19	568678	N
26:20	569008	N
26:21	569333	N
26:22	569654	N
26:23	569974	N
26:24	570260	N
26:24	570542	N
26:25	570851	N
26:26	571190	N
26:27	571516	N
26:28	571823	N
26:29	572132	N
26:30	572405	N
26:30	572713	N
26:31	573018	N
26:32	573360	N
26:33	573669	N
26:34	573989	N
26:35	574323	N
26:36	574628	N
26:36	574903	N
26:37	575191	N
26:38	575509	N
26:39	575712	V
26:40	576151	N
26:41	576480	N
26:42	576773	N
26:42	577056	N
26:43	577359	N
26:44	577637	N
26:44	577749	+
26:45	577861	V
26:46	578357	N
26:47	578561	V
26:48	578973	N
26:48	579169	V
26:49	579377	+
26:49	579585	N
26:50	579914	N
26:51	580267	N
26:52	580588	N
26:53	580919	N
26:53	581019	+
26:54	581119	V
26:55	581506	N
26:55	581703	V
26:57	582141	N
26:57	582359	V
26:58	582802	N
26:59	583030	V
27:00	583426	N
27:01	583614	V
27:02	584050	N
27:03	584286	V
27:03	584527	+
27:04	584768	N
27:05	585091	N
27:06	585391	N
27:06	585674	N
27:07	585969	N
27:08	586183	V
27:09	586622	N
27:10	586855	V
27:11	587251	N
27:12	587553	N
27:12	587861	N
27:13	588163	N
27:14	588344	V
27:15	588769	N
27:16	589093	N
27:17	589401	N
27:18	589703	N
27:18	589992	N
27:19	590276	N
27:20	590567	N
27:21	590838	N
27:22	591229	N
27:23	591543	N
27:23	591829	N
27:24	592009	V
27:25	592394	N
27:26	592590	V
27:27	593012	N
27:28	593333	N
27:29	593640	N
27:29	593922	N
27:30	594215	N
27:31	594513	N
27:31	594703	V
27:33	595116	N
27:33	595434	N
27:34	595744	N
27:35	596027	N
27:36	596332	N
27:37	596618	N
27:38	596915	N
27:38	597215	N
27:39	597414	V
27:40	597879	N
27:41	598077	V
27:42	598454	N
27:43	598743	N
27:43	599036	N
27:44	599348	N
27:45	599574	V
27:46	600012	N
27:47	600198	V
27:48	600601	N
27:49	600906	N
27:50	601233	N
27:51	601563	N
27:51	601795	A
27:52	602185	N
27:53	602407	V
27:54	602812	N
27:55	603114	N
27:56	603423	N
27:57	603744	N
27:57	603848	+
27:57	603952	V
27:58	604399	N
27:59	604624	V
28:00	605029	N
28:01	605215	V
28:01	605428	+
28:02	605641	N
28:03	605973	N
28:04	606293	N
28:05	606651	N
28:05	606959	N
28:06	607236	N
28:07	607528	N
28:08	607855	N
28:09	608184	N
28:10	608464	N
28:11	608824	N
28:12	609128	N
28:12	609418	N
28:13	609720	N
28:14	610057	N
28:14	610162	+
28:15	610268	V
28:16	610682	N
28:16	610887	V
28:18	611320	N
28:18	611513	V
28:19	611927	N
28:20	612128	V
28:21	612560	N
28:22	612761	V
28:23	613192	N
28:23	613414	V
28:24	613602	+
28:24	613790	N
28:25	614086	N
28:26	614409	N
28:27	614753	N
28:28	615072	N
28:29	615374	N
28:29	615556	V
28:30	615952	N
28:31	616264	N
28:32	616588	N
28:33	616916	N
28:34	617229	N
28:35	617533	N
28:35	617718	V
28:37	618137	N
28:37	618441	N
28:38	618746	N
28:39	619053	N
28:40	619364	N
28:41	619672	N
28:42	619990	N
28:42	620265	N
28:43	620558	N
28:44	620744	V
28:45	621196	N
28:46	621517	N
28:47	621835	N
28:48	622140	N
28:48	622424	N
28:49	622610	V
28:50	623048	N
28:51	623401	N
28:52	623726	N
28:53	624040	N
28:54	624358	N
28:55	624662	N
28:55	624868	V
28:56	625318	N
28:57	625641	N
28:58	625961	N
28:59	626256	N
29:00	626584	N
29:01	626883	N
29:02	627213	N
29:03	627557	N
29:04	627904	N
29:05	628234	N
29:05	628544	N
29:06	628840	N
29:07	629135	N
29:08	629439	N
29:09	629766	N
29:10	630105	N
29:11	630415	N
29:11	630707	N
29:12	631007	N
29:13	631322	N
29:14	631516	V
29:15	631980	N
29:16	632211	V
29:17	632607	N
29:17	632862	N
29:18	633188	N
29:19	633493	N
29:20	633704	V
29:21	634110	N
29:22	634421	N
29:23	634754	N
29:24	635045	N
29:24	635340	N
29:25	635619	N
29:26	635929	N
29:27	636241	N
29:28	636558	N
29:29	636876	N
29:29	637153	N
29:30	637446	N
29:31	637638	V
29:32	638067	N
29:33	638399	N
29:34	638718	N
29:35	639010	N
29:35	639221	V
29:36	639584	N
29:37	639764	V
29:38	640175	N
29:39	640475	N
29:39	640795	N
29:40	641109	N
29:41	641412	N
29:41	641509	+
29:42	641606	V
29:43	641981	N
29:43	642171	V
29:44	642586	N
29:45	642801	V
29:46	643005	+
29:46	643210	N
29:47	643516	N
29:48	643801	N
29:49	644094	N
29:49	644398	N
29:50	644738	N
29:51	644941	V
29:52	645382	N
29:53	645682	N
29:54	645972	N
29:55	646270	N
29:56	646578	N
29:56	646910	N
29:57	647099	V
29:58	647513	N
29:59	647846	N
30:00	648052	V
30:01	648464	N
30:02	648777	N
30:03	649108	N
30:03	649332	V
30:04	649761	N
