0:00	75	N
0:00	349	N
0:01	616	N
0:02	880	N
0:03	1138	N
0:03	1400	N
0:04	1545	+
0:04	1666	N
0:05	1926	N
0:06	2199	N
0:06	2467	N
0:07	2726	N
0:08	2985	N
0:09	3243	N
0:09	3502	N
0:10	3763	N
0:11	4026	N
0:11	4300	N
0:12	4570	N
0:13	4841	N
0:14	5115	N
0:14	5387	N
0:15	5566	+
0:15	5662	N
0:16	5926	N
0:17	6193	N
0:17	6458	N
0:18	6732	N
0:19	7005	N
0:20	7262	N
0:20	7524	N
0:21	7776	N
0:22	8024	N
0:22	8273	N
0:23	8523	N
0:24	8782	N
0:25	9052	N
0:25	9329	N
0:26	9490	+
0:26	9598	N
0:27	9872	N
0:28	10156	N
0:28	10437	N
0:29	10717	N
0:30	10990	N
0:30	11148	+
0:31	11259	N
0:32	11532	N
0:32	11805	N
0:33	12079	N
0:34	12358	N
0:35	12643	N
0:35	12923	N
0:36	13117	+
0:36	13208	N
0:37	13498	N
0:38	13781	N
0:39	14056	N
0:39	14332	N
0:40	14610	N
0:41	14876	N
0:42	15153	N
0:42	15336	+
0:42	15434	N
0:43	15708	N
0:44	15983	N
0:45	16269	N
0:46	16570	N
0:46	16867	N
0:47	17163	N
0:48	17451	N
0:49	17728	N
0:50	18007	N
0:50	18278	N
0:51	18560	N
0:52	18850	N
0:53	19134	N
0:53	19413	N
0:54	19690	N
0:55	19979	N
0:56	20270	N
0:57	20560	N
0:57	20834	N
0:58	21111	N
0:59	21395	N
1:00	21689	N
1:01	21997	N
1:01	22301	N
1:02	22595	N
1:03	22895	N
1:04	23200	N
1:05	23493	N
1:06	23778	N
1:06	24058	N
1:07	24348	N
1:08	24649	N
1:09	24946	N
1:10	25244	N
1:10	25543	N
1:11	25826	N
1:12	26088	N
1:13	26353	N
1:13	26622	N
1:14	26884	N
1:15	27159	N
1:16	27447	N
1:17	27740	N
1:17	28033	N
1:18	28330	N
1:19	28632	N
1:20	28922	N
1:21	29211	N
1:21	29495	N
1:22	29784	N
1:23	30082	N
1:24	30382	N
1:25	30670	N
1:25	30951	N
1:26	31221	N
1:27	31496	N
1:28	31789	N
1:29	32080	N
1:29	32376	N
1:30	32671	N
1:31	32980	N
1:32	33289	N
1:33	33583	N
1:34	33869	N
1:34	34155	N
1:35	34439	N
1:36	34719	N
1:37	35009	N
1:38	35309	N
1:38	35620	N
1:39	35947	N
1:40	36260	N
1:41	36575	N
1:42	36890	N
1:43	37184	N
1:44	37476	N
1:44	37763	N
1:45	38056	N
1:46	38355	N
1:47	38666	N
1:48	38977	N
1:49	39267	N
1:49	39552	N
1:50	39836	N
1:51	40124	N
1:52	40401	N
1:53	40682	N
1:53	40966	N
1:54	41242	N
1:55	41436	+
1:55	41532	N
1:56	41829	N
1:57	42138	N
1:57	42307	+
1:57	42438	N
1:58	42745	N
1:59	43063	N
2:00	43373	N
2:01	43668	N
2:02	43944	N
2:02	44218	N
2:03	44485	N
2:04	44755	N
2:05	45030	N
2:05	45296	N
2:06	45565	N
2:07	45837	N
2:08	46112	N
2:08	46390	N
2:09	46662	N
2:10	46948	N
2:11	47273	N
2:11	47475	+
2:12	47599	N
2:13	47933	N
2:14	48248	N
2:14	48547	N
2:15	48841	N
2:16	49137	N
2:17	49427	N
2:18	49711	N
2:18	49994	N
2:19	50271	N
2:20	50552	N
2:21	50838	N
2:22	51128	N
2:22	51422	N
2:23	51717	N
2:24	52005	N
2:25	52295	N
2:26	52595	N
2:26	52891	N
2:27	53177	N
2:28	53350	+
2:28	53457	N
2:28	53629	+
2:29	53732	N
2:29	53920	+
2:30	54007	N
2:30	54275	N
2:31	54546	N
2:32	54820	N
2:33	55093	N
2:33	55275	+
2:33	55377	N
2:34	55671	N
2:35	55962	N
2:36	56236	N
2:36	56508	N
2:37	56772	N
2:38	57036	N
2:39	57298	N
2:39	57567	N
2:40	57731	+
2:40	57839	N
2:41	58035	+
2:41	58115	N
2:42	58391	N
2:42	58661	N
2:43	58943	N
2:44	59237	N
2:45	59431	+
2:45	59520	N
2:46	59791	N
2:46	60045	N
2:47	60294	N
2:48	60536	N
2:48	60775	N
2:49	61015	N
2:50	61262	N
2:50	61504	N
2:51	61752	N
2:52	61998	N
2:52	62255	N
2:53	62514	N
2:54	62669	+
2:54	62766	N
2:55	63019	N
2:55	63265	N
2:56	63509	N
2:57	63759	N
2:57	64001	N
2:58	64248	N
2:59	64495	N
2:59	64636	+
2:59	64732	N
3:00	64896	+
3:00	64970	N
3:01	65204	N
3:01	65344	+
3:01	65435	N
3:02	65671	N
3:03	65900	N
3:03	66127	N
3:04	66345	N
3:04	66564	N
3:05	66781	N
3:06	67014	N
3:06	67255	N
3:07	67515	N
3:08	67706	+
3:08	67796	N
3:08	67979	+
3:09	68075	N
3:09	68349	N
3:10	68606	N
3:11	68860	N
3:11	69105	N
3:12	69336	N
3:13	69567	N
3:13	69791	N
3:14	70018	N
3:15	70251	N
3:15	70489	N
3:16	70734	N
3:17	70997	N
3:17	71258	N
3:18	71520	N
3:19	71780	N
3:20	72054	N
3:20	72323	N
3:21	72579	N
3:22	72840	N
3:23	73091	N
3:23	73342	N
3:24	73593	N
3:25	73845	N
3:25	74107	N
3:26	74379	N
3:27	74642	N
3:28	74902	N
3:28	75163	N
3:29	75428	N
3:30	75692	N
3:30	75952	N
3:31	76215	N
3:32	76480	N
3:32	76655	+
3:33	76739	N
3:33	76989	N
3:34	77241	N
3:35	77488	N
3:35	77729	N
3:36	77965	N
3:37	78197	N
3:37	78428	N
3:38	78663	N
3:39	78905	N
3:39	79147	N
3:40	79400	N
3:41	79647	N
3:41	79900	N
3:42	80158	N
3:43	80420	N
3:44	80674	N
3:44	80932	N
3:45	81179	N
3:46	81429	N
3:46	81675	N
3:47	81917	N
3:48	82161	N
3:48	82312	+
3:48	82395	N
3:49	82626	N
3:50	82853	N
3:50	83088	N
3:51	83338	N
3:52	83587	N
3:52	83779	+
3:52	83848	N
3:53	84108	N
3:54	84365	N
3:55	84612	N
3:55	84851	N
3:56	85100	N
3:56	85247	+
3:57	85346	N
3:57	85507	+
3:57	85587	N
3:58	85831	N
3:59	86073	N
3:59	86335	N
4:00	86604	N
4:01	86854	N
4:01	87025	+
4:01	87102	N
4:02	87351	N
4:03	87600	N
4:04	87847	N
4:04	88017	+
4:04	88091	N
4:05	88338	N
4:06	88589	N
4:06	88834	N
4:07	89081	N
4:08	89327	N
4:08	89588	N
4:09	89862	N
4:10	90122	N
4:11	90387	N
4:11	90665	N
4:12	90920	N
4:13	91173	N
4:13	91424	N
4:14	91684	N
4:15	91852	+
4:15	91956	N
4:16	92227	N
4:16	92486	N
4:17	92740	N
4:18	92998	N
4:19	93255	N
4:19	93523	N
4:20	93793	N
4:21	94055	N
4:21	94308	N
4:22	94558	N
4:23	94824	N
4:24	95122	N
4:25	95428	N
4:25	95740	N
4:26	96047	N
4:27	96237	+
4:27	96342	N
4:28	96611	N
4:28	96834	+
4:29	96876	N
4:29	97134	N
4:30	97381	N
4:31	97566	+
4:31	97629	N
4:31	97873	N
4:32	98114	N
4:33	98358	N
4:33	98595	N
4:34	98837	N
4:35	99073	N
4:35	99322	N
4:36	99573	N
4:37	99816	N
4:37	100066	N
4:38	100310	N
4:39	100559	N
4:40	100822	N
4:40	101084	N
4:41	101360	N
4:42	101625	N
4:42	101874	N
4:43	102134	N
4:44	102405	N
4:45	102688	N
4:46	102988	N
4:47	103327	N
4:47	103647	N
4:48	103977	N
4:49	104313	N
4:50	104664	N
4:51	105025	N
4:52	105347	N
4:53	105650	N
4:54	105962	N
4:55	106292	N
4:56	106646	N
4:57	107007	N
4:58	107359	N
4:59	107708	N
5:00	108050	N
5:01	108391	N
5:02	108724	N
5:02	109051	N
5:03	109399	N
5:04	109753	N
5:05	110086	N
5:06	110413	N
5:07	110752	N
5:08	111078	N
5:09	111416	N
5:10	111767	N
5:11	112092	N
5:12	112403	N
5:13	112746	N
5:14	113100	N
5:15	113438	N
5:16	113781	N
5:16	114083	N
5:17	114387	N
5:18	114712	N
5:19	115033	N
5:20	115355	N
5:21	115694	N
5:22	116038	N
5:23	116389	N
5:24	116729	N
5:25	117069	N
5:26	117419	N
5:26	117638	+
5:27	117758	N
5:27	117969	+
5:28	118084	N
5:28	118418	N
5:29	118762	N
5:30	119125	N
5:31	119492	N
5:32	119651	+
5:32	119836	N
5:33	120056	+
5:33	120171	N
5:34	120522	N
5:35	120864	N
5:36	121209	N
5:37	121557	N
5:38	121898	N
5:39	122253	N
5:40	122607	N
5:41	122914	N
5:42	123223	N
5:43	123541	N
5:44	123887	N
5:45	124225	N
5:45	124541	N
5:46	124847	N
5:47	125152	N
5:48	125468	N
5:49	125806	N
5:50	126149	N
5:51	126467	N
5:52	126766	N
5:52	127071	N
5:53	127390	N
5:54	127737	N
5:55	128092	N
5:56	128273	+
5:56	128441	N
5:57	128787	N
5:58	129102	N
5:59	129401	N
5:59	129561	+
6:00	129684	N
6:01	129970	N
6:01	130263	N
6:02	130574	N
6:03	130738	+
6:03	130919	N
6:04	131266	N
6:05	131615	N
6:06	131932	N
6:07	132249	N
6:08	132541	N
6:08	132731	+
6:08	132832	N
6:09	133137	N
6:10	133466	N
6:11	133798	N
6:12	134162	N
6:13	134536	N
6:14	134893	N
6:15	135242	N
6:16	135593	N
6:17	135928	N
6:18	136262	N
6:19	136579	N
6:20	136909	N
6:21	137258	N
6:22	137591	N
6:23	137927	N
6:24	138265	N
6:25	138618	N
6:26	138972	N
6:26	139171	+
6:26	139319	N
6:27	139660	N
6:28	139979	N
6:29	140283	N
6:30	140588	N
6:31	140801	+
6:31	140901	N
6:32	141224	N
6:33	141560	N
6:34	141897	N
6:35	142249	N
6:36	142605	N
6:37	142944	N
6:37	143279	N
6:38	143627	N
6:39	143997	N
6:41	144365	N
6:41	144702	N
6:42	145045	N
6:43	145403	N
6:44	145745	N
6:45	146093	N
6:46	146444	N
6:47	146801	N
6:48	146956	+
6:48	147166	N
6:49	147499	N
6:50	147701	+
6:50	147822	N
6:51	148145	N
6:52	148476	N
6:52	148678	+
6:53	148828	N
6:54	149153	N
6:54	149341	+
6:55	149472	N
6:56	149798	N
6:57	150125	N
6:57	150355	+
6:57	150458	N
6:58	150681	+
6:58	150778	N
6:59	151098	N
7:00	151432	N
7:01	151598	+
7:01	151779	N
7:02	152125	N
7:03	152446	N
7:03	152612	+
7:04	152766	N
7:05	153094	N
7:06	153402	N
7:07	153738	N
7:08	154096	N
7:09	154461	N
7:10	154835	N
7:10	155158	N
7:11	155333	+
7:11	155484	N
7:12	155812	N
7:13	156136	N
7:14	156437	N
7:15	156625	+
7:15	156729	N
7:16	157037	N
7:17	157358	N
7:17	157534	+
7:18	157685	N
7:18	158020	N
7:19	158372	N
7:20	158713	N
7:21	159055	N
7:22	159359	N
7:23	159661	N
7:24	159966	N
7:25	160289	N
7:26	160612	N
7:27	160934	N
7:27	161230	N
7:28	161515	N
7:29	161794	N
7:30	162084	N
7:31	162398	N
7:31	162587	+
7:31	162705	N
7:32	163031	N
7:33	163363	N
7:34	163547	+
7:34	163697	N
7:35	163872	+
7:35	163993	N
7:36	164281	N
7:37	164566	N
7:37	164846	N
7:38	165132	N
7:39	165434	N
7:40	165758	N
7:40	165950	+
7:41	166088	N
7:41	166278	+
7:42	166398	N
7:43	166718	N
7:43	166898	+
7:43	167038	N
7:44	167221	+
7:44	167345	N
7:45	167650	N
7:46	167957	N
7:47	168268	N
7:48	168588	N
7:48	168729	+
7:49	168914	N
7:50	169214	N
7:50	169417	+
7:50	169520	N
7:51	169834	N
7:52	170164	N
7:53	170337	+
7:53	170487	N
7:54	170792	N
7:54	170986	+
7:55	171094	N
7:56	171408	N
7:57	171736	N
7:57	171926	+
7:57	172068	N
7:58	172283	+
7:58	172388	N
7:59	172713	N
8:00	173045	N
8:01	173393	N
8:02	173736	N
8:03	173907	+
8:03	174065	N
8:04	174388	N
8:05	174701	N
8:05	174873	+
8:06	175001	N
8:06	175308	N
8:07	175631	N
8:08	175963	N
8:09	176305	N
8:10	176664	N
8:11	177025	N
8:12	177219	+
8:12	177353	N
8:13	177538	+
8:13	177657	N
8:14	177969	N
8:15	178293	N
8:15	178457	+
8:16	178643	N
8:17	178985	N
8:18	179325	N
8:18	179639	N
8:19	179855	+
8:19	179965	N
8:20	180275	N
8:21	180599	N
8:22	180919	N
8:23	181257	N
8:23	181405	+
8:24	181604	N
8:25	181922	N
8:25	182141	+
8:26	182242	N
8:27	182566	N
8:28	182896	N
8:29	183241	N
8:29	183442	+
8:29	183579	N
8:30	183921	N
8:31	184249	N
8:32	184575	N
8:33	184907	N
8:34	185217	N
8:35	185517	N
8:36	185801	N
8:36	186077	N
8:37	186376	N
8:38	186690	N
8:39	187019	N
8:40	187350	N
8:41	187695	N
8:42	188007	N
8:43	188328	N
8:44	188658	N
8:44	188971	N
8:45	189282	N
8:46	189598	N
8:47	189828	+
8:47	189928	N
8:48	190257	N
8:49	190589	N
8:50	190932	N
8:51	191248	N
8:52	191576	N
8:53	191914	N
8:54	192257	N
8:54	192389	+
8:55	192604	N
8:55	192933	N
8:56	193163	+
8:56	193263	N
8:57	193600	N
8:58	193929	N
8:59	194273	N
9:00	194464	+
9:00	194604	N
9:01	194833	+
9:01	194931	N
9:02	195265	N
9:03	195604	N
9:03	195833	+
9:04	195953	N
9:05	196307	N
9:06	196634	N
9:07	196959	N
9:08	197292	N
9:08	197626	N
9:09	197948	N
9:10	198273	N
9:11	198600	N
9:12	198909	N
9:13	199090	+
9:13	199216	N
9:14	199530	N
9:15	199831	N
9:15	200145	N
9:16	200467	N
9:17	200803	N
9:18	201114	N
9:19	201435	N
9:20	201757	N
9:21	202068	N
9:22	202378	N
9:23	202701	N
9:23	202854	+
9:23	203030	N
9:24	203360	N
9:25	203673	N
9:26	203890	+
9:26	203983	N
9:27	204288	N
9:27	204459	+
9:28	204578	N
9:29	204858	N
9:29	205117	N
9:30	205367	N
9:31	205614	N
9:31	205865	N
9:32	206113	N
9:33	206355	N
9:33	206617	N
9:34	206944	N
9:35	207291	N
9:36	207631	N
9:37	207866	+
9:37	207987	N
9:38	208337	N
9:39	208669	N
9:40	209001	N
9:41	209329	N
9:42	209643	N
9:43	209957	N
9:44	210279	N
9:44	210493	+
9:45	210615	N
9:45	210952	N
9:46	211293	N
9:47	211621	N
9:48	211860	+
9:48	211949	N
9:49	212278	N
9:50	212504	+
9:50	212616	N
9:51	212939	N
9:52	213262	N
9:53	213572	N
9:54	213867	N
9:54	214147	N
9:55	214426	N
9:56	214727	N
9:57	215062	N
9:58	215403	N
9:59	215752	N
9:59	215985	+
10:00	216078	N
10:01	216399	N
10:01	216716	N
10:02	217051	N
10:03	217393	N
10:04	217730	N
10:05	218062	N
10:06	218395	N
10:07	218724	N
10:08	219054	N
10:09	219383	N
10:10	219714	N
10:11	220043	N
10:12	220375	N
10:13	220693	N
10:13	221018	N
10:14	221191	+
10:14	221345	N
10:15	221653	N
10:16	221855	+
10:16	221954	N
10:17	222267	N
10:17	222464	+
10:18	222591	N
10:19	222918	N
10:20	223228	N
10:20	223544	N
10:21	223855	N
10:22	224174	N
10:23	224489	N
10:24	224796	N
10:25	225111	N
10:26	225426	N
10:27	225742	N
10:27	225946	+
10:27	226065	N
10:28	226390	N
10:29	226709	N
10:30	227042	N
10:31	227366	N
10:32	227701	N
10:33	228035	N
10:33	228205	+
10:34	228363	N
10:35	228679	N
10:36	229009	N
10:37	229338	N
10:37	229659	N
10:38	229977	N
10:39	230191	+
10:39	230302	N
10:40	230633	N
10:41	230839	+
10:41	230956	N
10:42	231155	+
10:42	231249	N
10:43	231539	N
10:43	231725	+
10:43	231827	N
10:44	232148	N
10:45	232484	N
10:46	232805	N
10:47	233120	N
10:48	233440	N
10:49	233757	N
10:50	234069	N
10:51	234375	N
10:51	234687	N
10:52	235012	N
10:53	235350	N
10:54	235686	N
10:55	235904	+
10:55	236022	N
10:56	236360	N
10:57	236570	+
10:57	236692	N
10:58	237006	N
10:58	237217	+
10:59	237323	N
11:00	237648	N
11:00	237832	+
11:01	237967	N
11:01	238282	N
11:02	238524	+
11:02	238625	N
11:03	238969	N
11:04	239292	N
11:05	239610	N
11:06	239941	N
11:06	240114	+
11:07	240252	N
11:07	240447	+
11:08	240555	N
11:09	240864	N
11:09	241179	N
11:10	241374	+
11:10	241504	N
11:11	241827	N
11:12	242135	N
11:13	242442	N
11:14	242754	N
11:15	243071	N
11:16	243376	N
11:16	243673	N
11:17	243979	N
11:18	244279	N
11:19	244570	N
11:20	244863	N
11:21	245171	N
11:21	245481	N
11:22	245797	N
11:23	246113	N
11:24	246424	N
11:25	246716	N
11:26	247012	N
11:26	247310	N
11:27	247602	N
11:28	247900	N
11:29	248089	+
11:29	248224	N
11:30	248567	N
11:30	248753	+
11:31	248897	N
11:31	249102	+
11:32	249219	N
11:33	249566	N
11:34	249906	N
11:35	250238	N
11:36	250571	N
11:36	250746	+
11:36	250883	N
11:37	251084	+
11:37	251193	N
11:38	251522	N
11:39	251868	N
11:40	252209	N
11:41	252558	N
11:42	252911	N
11:43	253098	+
11:43	253239	N
11:44	253558	N
11:45	253873	N
11:46	254177	N
11:46	254480	N
11:47	254789	N
11:48	254988	+
11:48	255103	N
11:49	255424	N
11:50	255746	N
11:50	255955	+
11:51	256068	N
11:52	256376	N
11:53	256691	N
11:53	257010	N
11:54	257326	N
11:55	257624	N
11:56	257930	N
11:57	258247	N
11:58	258547	N
11:59	258852	N
11:59	259166	N
12:00	259489	N
12:01	259819	N
12:02	260130	N
12:03	260426	N
12:04	260717	N
12:04	260999	N
12:05	261309	N
12:06	261641	N
12:07	261960	N
12:08	262263	N
12:09	262576	N
12:10	262890	N
12:11	263204	N
12:12	263522	N
12:12	263831	N
12:13	264144	N
12:14	264441	N
12:15	264737	N
12:16	265040	N
12:17	265350	N
12:17	265660	N
12:18	265976	N
12:19	266259	N
12:20	266546	N
12:21	266838	N
12:22	267125	N
12:22	267411	N
12:23	267696	N
12:24	267984	N
12:25	268279	N
12:26	268587	N
12:26	268895	N
12:27	269210	N
12:28	269505	N
12:29	269808	N
12:30	270107	N
12:31	270399	N
12:31	270694	N
12:32	271001	N
12:33	271327	N
12:34	271546	+
12:34	271662	N
12:35	272001	N
12:36	272342	N
12:37	272562	+
12:37	272675	N
12:38	272983	N
12:39	273281	N
12:39	273582	N
12:40	273887	N
12:41	274094	+
12:41	274214	N
12:42	274550	N
12:43	274883	N
12:44	275212	N
12:45	275408	+
12:45	275530	N
12:46	275847	N
12:47	276160	N
12:47	276459	N
12:48	276758	N
12:49	277065	N
12:50	277383	N
12:51	277716	N
12:52	278040	N
12:53	278367	N
12:54	278688	N
12:55	279012	N
12:55	279313	N
12:56	279617	N
12:57	279933	N
12:58	280251	N
12:59	280569	N
13:00	280885	N
13:01	281208	N
13:02	281530	N
13:02	281847	N
13:03	282159	N
13:04	282478	N
13:05	282807	N
13:06	283138	N
13:07	283437	N
13:08	283741	N
13:09	284052	N
13:09	284386	N
13:10	284706	N
13:11	285015	N
13:12	285332	N
13:13	285651	N
13:14	285873	+
13:14	285979	N
13:15	286306	N
13:15	286490	+
13:16	286605	N
13:16	286898	N
13:17	287184	N
13:18	287494	N
13:19	287807	N
13:20	288134	N
13:21	288472	N
13:22	288786	N
13:23	289107	N
13:24	289440	N
13:24	289768	N
13:25	290083	N
13:26	290398	N
13:27	290722	N
13:28	291052	N
13:29	291373	N
13:30	291687	N
13:31	291977	N
13:31	292256	N
13:32	292544	N
13:33	292850	N
13:34	293169	N
13:35	293500	N
13:36	293819	N
13:37	294138	N
13:37	294454	N
13:38	294773	N
13:39	295099	N
13:40	295434	N
13:41	295771	N
13:42	296088	N
13:43	296388	N
13:44	296677	N
13:44	296986	N
13:45	297309	N
13:46	297631	N
13:47	297928	N
13:48	298212	N
13:49	298493	N
13:49	298776	N
13:50	299073	N
13:51	299361	N
13:52	299651	N
13:53	299957	N
13:54	300266	N
13:54	300583	N
13:55	300888	N
13:56	301199	N
13:57	301511	N
13:58	301800	N
13:59	302088	N
13:59	302383	N
14:00	302689	N
14:01	303002	N
14:02	303316	N
14:03	303619	N
14:04	303927	N
14:05	304226	N
14:05	304528	N
14:06	304837	N
14:07	305137	N
14:08	305422	N
14:09	305704	N
14:09	305993	N
14:10	306293	N
14:11	306586	N
14:12	306897	N
14:13	307230	N
14:14	307537	N
14:15	307841	N
14:15	308152	N
14:16	308466	N
14:17	308770	N
14:18	309056	N
14:19	309329	N
14:20	309603	N
14:20	309875	N
14:21	310166	N
14:22	310479	N
14:23	310804	N
14:24	311130	N
14:24	311326	+
14:25	311471	N
14:26	311811	N
14:27	312148	N
14:27	312317	+
14:27	312476	N
14:28	312665	+
14:28	312778	N
14:29	313080	N
14:30	313386	N
14:31	313688	N
14:32	314000	N
14:33	314327	N
14:34	314659	N
14:34	314846	+
14:34	314995	N
14:35	315198	+
14:35	315315	N
14:36	315639	N
14:37	315852	+
14:37	315965	N
14:38	316253	N
14:38	316432	+
14:39	316536	N
14:40	316829	N
14:40	317126	N
14:41	317429	N
14:42	317746	N
14:43	317940	+
14:43	318068	N
14:44	318377	N
14:44	318587	+
14:45	318699	N
14:46	319021	N
14:46	319218	+
14:47	319334	N
14:47	319518	+
14:47	319628	N
14:48	319927	N
14:49	320116	+
14:49	320243	N
14:50	320554	N
14:51	320869	N
14:52	321172	N
14:52	321461	N
14:53	321743	N
14:54	322029	N
14:55	322323	N
14:56	322609	N
14:56	322900	N
14:57	323092	+
14:57	323201	N
14:58	323521	N
14:59	323856	N
15:00	324185	N
15:01	324524	N
15:02	324856	N
15:03	325192	N
15:03	325363	+
15:04	325523	N
15:05	325837	N
15:05	326140	N
15:06	326443	N
15:07	326749	N
15:08	327056	N
15:09	327372	N
15:10	327676	N
15:10	327882	+
15:11	327988	N
15:11	328300	N
15:12	328615	N
15:13	328786	+
15:13	328930	N
15:14	329223	N
15:15	329403	+
15:15	329510	N
15:16	329805	N
15:16	330106	N
15:17	330418	N
15:18	330623	+
15:18	330739	N
15:19	331050	N
15:20	331271	+
15:20	331364	N
15:21	331688	N
15:22	332007	N
15:23	332335	N
15:24	332668	N
15:25	333003	N
15:25	333346	N
15:26	333684	N
15:27	334019	N
15:28	334212	+
15:28	334344	N
15:29	334534	+
15:29	334656	N
15:30	334827	+
15:30	334970	N
15:31	335294	N
15:32	335626	N
15:33	335960	N
15:34	336306	N
15:35	336641	N
15:35	336959	N
15:36	337261	N
15:37	337559	N
15:38	337847	N
15:39	338148	N
15:40	338472	N
15:41	338801	N
15:42	339126	N
15:42	339352	+
15:42	339459	N
15:43	339798	N
15:44	340136	N
15:45	340462	N
15:46	340675	+
15:46	340790	N
15:47	341107	N
15:48	341425	N
15:49	341740	N
15:50	342036	N
15:50	342314	N
15:51	342592	N
15:52	342882	N
15:53	343182	N
15:54	343510	N
15:55	343839	N
15:55	344159	N
15:56	344360	+
15:56	344479	N
15:57	344814	N
15:58	345148	N
15:59	345358	+
15:59	345472	N
16:00	345787	N
16:01	346088	N
16:02	346382	N
16:02	346664	N
16:03	346940	N
16:04	347226	N
16:05	347536	N
16:06	347866	N
16:07	348188	N
16:08	348512	N
16:08	348822	N
16:09	349025	+
16:09	349130	N
16:10	349447	N
16:11	349753	N
16:12	350060	N
16:12	350252	+
16:13	350362	N
16:14	350658	N
16:14	350943	N
16:15	351226	N
16:16	351503	N
16:17	351763	N
16:17	352022	N
16:18	352279	N
16:19	352542	N
16:20	352833	N
16:20	353146	N
16:21	353439	N
16:22	353742	N
16:23	354048	N
16:24	354348	N
16:25	354633	N
16:25	354912	N
16:26	355194	N
16:27	355471	N
16:28	355758	N
16:29	356056	N
16:29	356360	N
16:30	356674	N
16:31	356986	N
16:32	357297	N
16:33	357605	N
16:34	357917	N
16:35	358239	N
16:36	358562	N
16:36	358866	N
16:37	359162	N
16:38	359448	N
16:39	359726	N
16:39	359991	N
16:40	360263	N
16:41	360564	N
16:42	360886	N
16:43	361195	N
16:44	361500	N
16:44	361686	+
16:45	361811	N
16:45	362110	N
16:46	362419	N
16:47	362708	N
16:48	362994	N
16:49	363275	N
16:49	363558	N
16:50	363718	+
16:50	363847	N
16:51	364138	N
16:52	364422	N
16:53	364688	N
16:53	364950	N
16:54	365206	N
16:55	365473	N
16:55	365756	N
16:56	366042	N
16:57	366329	N
16:58	366623	N
16:59	366923	N
17:00	367206	N
17:00	367488	N
17:01	367766	N
17:02	368038	N
17:03	368320	N
17:03	368609	N
17:04	368907	N
17:05	369194	N
17:06	369470	N
17:06	369657	+
17:07	369744	N
17:07	370024	N
17:08	370305	N
17:09	370591	N
17:10	370874	N
17:10	371153	N
17:11	371431	N
17:12	371707	N
17:13	371998	N
17:14	372303	N
17:15	372621	N
17:15	372946	N
17:16	373147	+
17:16	373275	N
17:17	373579	N
17:18	373758	+
17:18	373877	N
17:19	374172	N
17:20	374468	N
17:20	374641	+
17:21	374761	N
17:21	375046	N
17:22	375337	N
17:23	375628	N
17:23	375806	+
17:24	375929	N
17:25	376233	N
17:25	376541	N
17:26	376856	N
17:27	377166	N
17:28	377483	N
17:29	377798	N
17:30	378099	N
17:31	378386	N
17:31	378664	N
17:32	378941	N
17:33	379232	N
17:34	379531	N
17:35	379843	N
17:36	380160	N
17:36	380490	N
17:37	380821	N
17:38	380973	+
17:38	381126	N
17:39	381293	+
17:39	381427	N
17:40	381730	N
17:40	381927	+
17:41	382046	N
17:42	382358	N
17:42	382563	+
17:42	382670	N
17:43	382996	N
17:44	383328	N
17:45	383539	+
17:45	383664	N
17:46	383983	N
17:47	384279	N
17:48	384572	N
17:48	384773	+
17:49	384863	N
17:49	385168	N
17:50	385474	N
17:51	385793	N
17:52	385948	+
17:52	386105	N
17:53	386314	+
17:53	386413	N
17:54	386716	N
17:55	387028	N
17:55	387350	N
17:56	387679	N
17:57	388006	N
17:58	388212	+
17:58	388340	N
17:59	388661	N
18:00	388864	+
18:00	388985	N
18:01	389305	N
18:02	389523	+
18:02	389632	N
18:03	389957	N
18:04	390283	N
18:05	390605	N
18:05	390922	N
18:06	391207	N
18:07	391486	N
18:08	391766	N
18:08	392023	N
18:09	392288	N
18:10	392564	N
18:11	392861	N
18:12	393174	N
18:12	393478	N
18:13	393671	+
18:13	393771	N
18:14	394055	N
18:15	394333	N
18:16	394603	N
18:16	394873	N
18:17	395139	N
18:18	395394	N
18:18	395639	N
18:19	395884	N
18:20	396126	N
18:20	396272	+
18:21	396364	N
18:21	396605	N
18:22	396844	N
18:23	397087	N
18:23	397320	N
18:24	397552	N
18:24	397780	N
18:25	398010	N
18:26	398236	N
18:26	398458	N
18:27	398679	N
18:28	398893	N
18:28	399113	N
18:29	399337	N
18:29	399570	N
18:30	399809	N
18:31	400052	N
18:31	400308	N
18:32	400554	N
18:33	400808	N
18:34	401060	N
18:34	401325	N
18:35	401600	N
18:36	401873	N
18:37	402139	N
18:37	402397	N
18:38	402650	N
18:39	402910	N
18:39	403177	N
18:40	403434	N
18:41	403684	N
18:42	403929	N
18:42	404162	N
18:43	404399	N
18:44	404645	N
18:44	404901	N
18:45	405162	N
18:46	405426	N
18:46	405697	N
18:47	405975	N
18:48	406245	N
18:49	406515	N
18:49	406783	N
18:50	407028	N
18:51	407271	N
18:51	407497	N
18:52	407727	N
18:53	407951	N
18:53	408177	N
18:54	408406	N
18:55	408646	N
18:55	408895	N
18:56	409153	N
18:57	409329	+
18:57	409413	N
18:58	409698	N
18:58	409980	N
18:59	410248	N
19:00	410517	N
19:01	410776	N
19:01	411036	N
19:02	411298	N
19:03	411551	N
19:03	411805	N
19:04	412056	N
19:05	412309	N
19:06	412570	N
19:06	412837	N
19:07	413101	N
19:08	413371	N
19:09	413640	N
19:09	413903	N
19:10	414069	+
19:10	414167	N
19:10	414348	+
19:11	414432	N
19:11	414686	N
19:12	414937	N
19:13	415174	N
19:13	415323	+
19:13	415421	N
19:14	415667	N
19:15	415912	N
19:16	416162	N
19:16	416316	+
19:16	416410	N
19:17	416654	N
19:18	416900	N
19:18	417049	+
19:18	417145	N
19:19	417394	N
19:20	417658	N
19:20	417919	N
19:21	418178	N
19:22	418432	N
19:22	418678	N
19:23	418920	N
19:24	419164	N
19:25	419412	N
19:25	419657	N
19:26	419901	N
19:27	420152	N
19:27	420405	N
19:28	420660	N
19:28	420825	+
19:29	420921	N
19:29	421181	N
19:30	421442	N
19:31	421689	N
19:32	421948	N
19:32	422198	N
19:33	422442	N
19:33	422596	+
19:34	422691	N
19:34	422934	N
19:35	423171	N
19:36	423406	N
19:36	423638	N
19:37	423874	N
19:38	424114	N
19:38	424362	N
19:39	424611	N
19:40	424855	N
19:40	425102	N
19:41	425355	N
19:42	425608	N
19:42	425870	N
19:43	426147	N
19:44	426424	N
19:45	426702	N
19:46	426976	N
19:46	427248	N
19:47	427529	N
19:48	427797	N
19:49	428071	N
19:49	428354	N
19:50	428627	N
19:51	428899	N
19:52	429181	N
19:52	429454	N
19:53	429725	N
19:54	429997	N
19:55	430257	N
19:55	430441	+
19:55	430533	N
19:56	430810	N
19:57	431082	N
19:58	431360	N
19:58	431624	N
19:59	431783	+
19:59	431889	N
20:00	432161	N
20:01	432432	N
20:01	432713	N
20:02	432996	N
20:03	433278	N
20:04	433563	N
20:05	433861	N
20:05	434142	N
20:06	434422	N
20:07	434711	N
20:08	435011	N
20:09	435316	N
20:10	435631	N
20:10	435936	N
20:11	436230	N
20:12	436527	N
20:13	436810	N
20:14	437096	N
20:14	437387	N
20:15	437683	N
20:16	437981	N
20:17	438282	N
20:18	438593	N
20:19	438907	N
20:20	439209	N
20:20	439512	N
20:21	439819	N
20:22	440113	N
20:23	440413	N
20:24	440716	N
20:25	441019	N
20:25	441313	N
20:26	441608	N
20:27	441906	N
20:28	442199	N
20:29	442482	N
20:29	442759	N
20:30	443027	N
20:31	443299	N
20:32	443576	N
20:32	443861	N
20:33	444143	N
20:34	444431	N
20:35	444728	N
20:36	445029	N
20:37	445333	N
20:37	445629	N
20:38	445928	N
20:39	446210	N
20:40	446489	N
20:41	446765	N
20:41	447046	N
20:42	447328	N
20:43	447619	N
20:44	447917	N
20:45	448222	N
20:45	448528	N
20:46	448830	N
20:47	449132	N
20:48	449420	N
20:49	449705	N
20:49	449996	N
20:50	450301	N
20:51	450594	N
20:52	450891	N
20:53	451197	N
20:54	451513	N
20:55	451828	N
20:55	452150	N
20:56	452474	N
20:57	452789	N
20:58	453091	N
20:59	453403	N
21:00	453713	N
21:01	454002	N
21:01	454288	N
21:02	454586	N
21:03	454859	N
21:04	455137	N
21:05	455417	N
21:05	455689	N
21:06	455943	N
21:07	456188	N
21:07	456438	N
21:08	456701	N
21:09	456976	N
21:10	457262	N
21:10	457548	N
21:11	457836	N
21:12	458132	N
21:13	458423	N
21:14	458699	N
21:14	458960	N
21:15	459222	N
21:16	459484	N
21:17	459753	N
21:17	460026	N
21:18	460286	N
21:19	460560	N
21:20	460827	N
21:20	461102	N
21:21	461390	N
21:22	461683	N
21:23	461980	N
21:24	462266	N
21:24	462546	N
21:25	462827	N
21:26	463120	N
21:27	463411	N
21:28	463700	N
21:28	463991	N
21:29	464293	N
21:30	464577	N
21:31	464863	N
21:32	465143	N
21:32	465410	N
21:33	465670	N
21:34	465930	N
21:35	466205	N
21:35	466496	N
21:36	466781	N
21:37	467081	N
21:38	467390	N
21:39	467687	N
21:39	467979	N
21:40	468272	N
21:41	468551	N
21:42	468821	N
21:43	469089	N
21:43	469350	N
21:44	469623	N
21:45	469903	N
21:46	470189	N
21:46	470460	N
21:47	470744	N
21:48	471032	N
21:49	471312	N
21:50	471603	N
21:50	471897	N
21:51	472194	N
21:52	472480	N
21:53	472771	N
21:54	473063	N
21:54	473352	N
21:55	473631	N
21:56	473915	N
21:57	474202	N
21:57	474476	N
21:58	474744	N
21:59	475009	N
22:00	475263	N
22:00	475530	N
22:01	475799	N
22:02	476082	N
22:03	476377	N
22:04	476671	N
22:04	476960	N
22:05	477240	N
22:06	477529	N
22:07	477808	N
22:08	478088	N
22:08	478371	N
22:09	478650	N
22:10	478929	N
22:11	479208	N
22:11	479488	N
22:12	479767	N
22:13	480044	N
22:14	480324	N
22:15	480610	N
22:15	480899	N
22:16	481189	N
22:17	481477	N
22:18	481762	N
22:18	482039	N
22:19	482308	N
22:20	482580	N
22:21	482853	N
22:21	483117	N
22:22	483379	N
22:23	483656	N
22:24	483950	N
22:25	484243	N
22:25	484543	N
22:26	484847	N
22:27	485143	N
22:28	485437	N
22:29	485715	N
22:29	485990	N
22:30	486252	N
22:31	486519	N
22:32	486788	N
22:32	487051	N
22:33	487319	N
22:34	487582	N
22:35	487857	N
22:35	488144	N
22:36	488430	N
22:37	488718	N
22:38	489010	N
22:39	489302	N
22:39	489584	N
22:40	489863	N
22:41	490128	N
22:42	490396	N
22:42	490666	N
22:43	490947	N
22:44	491226	N
22:45	491505	N
22:46	491794	N
22:46	492078	N
22:47	492366	N
22:48	492656	N
22:49	492938	N
22:50	493217	N
22:50	493494	N
22:51	493763	N
22:52	494032	N
22:53	494316	N
22:53	494613	N
22:54	494892	N
22:55	495176	N
22:56	495456	N
22:57	495745	N
22:57	496040	N
22:58	496347	N
22:59	496640	N
23:00	496935	N
23:01	497215	N
23:01	497497	N
23:02	497772	N
23:03	498036	N
23:04	498309	N
23:04	498587	N
23:05	498873	N
23:06	499169	N
23:07	499466	N
23:08	499750	N
23:09	500051	N
23:09	500353	N
23:10	500651	N
23:11	500946	N
23:12	501235	N
23:13	501512	N
23:13	501785	N
23:14	502060	N
23:15	502336	N
23:16	502594	N
23:16	502853	N
23:17	503107	N
23:18	503360	N
23:18	503620	N
23:19	503890	N
23:20	504166	N
23:21	504439	N
23:21	504704	N
23:22	504964	N
23:23	505233	N
23:24	505494	N
23:24	505750	N
23:25	506010	N
23:26	506264	N
23:26	506512	N
23:27	506768	N
23:28	507027	N
23:29	507282	N
23:29	507535	N
23:30	507787	N
23:31	508039	N
23:31	508203	+
23:31	508284	N
23:32	508527	N
23:33	508766	N
23:33	509002	N
23:34	509236	N
23:35	509472	N
23:35	509712	N
23:36	509963	N
23:37	510214	N
23:37	510474	N
23:38	510731	N
23:39	510977	N
23:40	511223	N
23:40	511470	N
23:41	511624	+
23:41	511717	N
23:42	511969	N
23:42	512221	N
23:43	512476	N
23:44	512724	N
23:44	512901	+
23:44	512979	N
23:45	513245	N
23:46	513520	N
23:47	513798	N
23:47	514075	N
23:48	514363	N
23:49	514658	N
23:50	514946	N
23:51	515248	N
23:52	515558	N
23:52	515753	+
23:52	515862	N
23:53	516058	+
23:53	516163	N
23:54	516474	N
23:55	516776	N
23:56	517078	N
23:57	517380	N
23:57	517591	+
23:57	517674	N
23:58	517949	N
23:59	518147	+
23:59	518233	N
24:00	518514	N
24:01	518778	N
24:01	519038	N
24:02	519292	N
24:03	519557	N
24:03	519834	N
24:04	520122	N
24:05	520405	N
24:06	520695	N
24:07	520990	N
24:07	521278	N
24:08	521587	N
24:09	521905	N
24:10	522128	+
24:10	522225	N
24:11	522540	N
24:12	522851	N
24:13	523162	N
24:14	523485	N
24:14	523782	N
24:15	524072	N
24:16	524353	N
24:17	524631	N
24:17	524833	+
24:18	524920	N
24:18	525198	N
24:19	525374	+
24:19	525465	N
24:19	525595	~
24:20	525648	+
24:20	525724	N
24:21	525980	N
24:21	526235	N
24:22	526483	N
24:22	526634	~
24:23	526730	N
24:23	526985	N
24:24	527228	N
24:25	527481	N
24:25	527738	N
24:26	527996	N
24:27	528267	N
24:28	528533	N
24:28	528810	N
24:29	529090	N
24:30	529376	N
24:31	529642	N
24:31	529907	N
24:32	530173	N
24:33	530428	N
24:34	530690	N
24:34	530946	N
24:35	531208	N
24:36	531481	N
24:37	531749	N
24:37	532015	N
24:38	532277	N
24:39	532534	N
24:39	532791	N
24:40	533060	N
24:41	533341	N
24:42	533622	N
24:43	533900	N
24:43	534167	N
24:44	534433	N
24:45	534704	N
24:46	534969	N
24:46	535231	N
24:47	535488	N
24:48	535757	N
24:49	536047	N
24:49	536346	N
24:50	536629	N
24:51	536914	N
24:52	537209	N
24:53	537494	N
24:53	537774	N
24:54	538056	N
24:55	538333	N
24:56	538615	N
24:56	538893	N
24:57	539170	N
24:58	539433	N
24:59	539706	N
24:59	539975	N
25:00	540091	|
25:00	540238	N
25:01	540500	N
25:02	540763	N
25:02	541033	N
25:03	541318	N
25:04	541602	N
25:05	541884	N
25:06	542165	N
25:06	542451	N
25:07	542725	N
25:08	542999	N
25:09	543270	N
25:09	543533	N
25:10	543803	N
25:11	544080	N
25:12	544377	N
25:13	544682	N
25:13	544990	N
25:14	545287	N
25:15	545581	N
25:16	545855	N
25:17	546124	N
25:17	546391	N
25:18	546663	N
25:19	546943	N
25:20	547228	N
25:20	547528	N
25:21	547840	N
25:22	548149	N
25:23	548438	N
25:24	548726	N
25:25	549011	N
25:25	549283	N
25:26	549548	N
25:27	549807	N
25:27	550057	N
25:28	550305	N
25:29	550560	N
25:30	550838	N
25:30	551118	N
25:31	551393	N
25:32	551665	N
25:33	551941	N
25:33	552215	N
25:34	552494	N
25:35	552782	N
25:36	553066	N
25:37	553338	N
25:37	553610	N
25:38	553884	N
25:39	554157	N
25:40	554428	N
25:40	554697	N
25:41	554962	N
25:42	555232	N
25:43	555497	N
25:43	555769	N
25:44	556051	N
25:45	556332	N
25:46	556610	N
25:46	556893	N
25:47	557184	N
25:48	557475	N
25:49	557764	N
25:50	558055	N
25:50	558345	N
25:51	558645	N
25:52	558946	N
25:53	559260	N
25:54	559560	N
25:55	559853	N
25:55	560139	N
25:56	560432	N
25:57	560735	N
25:58	561041	N
25:59	561355	N
26:00	561660	N
26:00	561956	N
26:01	562232	N
26:02	562411	+
26:02	562496	N
26:03	562749	N
26:03	562986	N
26:04	563220	N
26:05	563450	N
26:05	563686	N
26:06	563927	N
26:07	564173	N
26:07	564427	N
26:08	564680	N
26:09	564941	N
26:10	565204	N
26:10	565464	N
26:11	565713	N
26:12	565956	N
26:12	566190	N
26:13	566426	N
26:14	566663	N
26:14	566910	N
26:15	567080	+
26:15	567165	N
26:16	567419	N
26:16	567690	N
26:17	567968	N
26:18	568258	N
26:19	568545	N
26:20	568843	N
26:20	569142	N
26:21	569422	N
26:22	569704	N
26:23	569984	N
26:24	570256	N
26:24	570530	N
26:25	570794	N
26:26	571053	N
26:26	571304	N
26:27	571560	N
26:28	571815	N
26:29	572075	N
26:29	572348	N
26:30	572616	N
26:31	572893	N
26:32	573168	N
26:32	573459	N
26:33	573746	N
26:34	574028	N
26:35	574302	N
26:36	574576	N
26:36	574847	N
26:37	575111	N
26:38	575379	N
26:38	575639	N
26:39	575895	N
26:40	576155	N
26:41	576416	N
26:41	576680	N
26:42	576953	N
26:43	577212	N
26:44	577472	N
26:44	577730	N
26:45	577919	+
26:45	577984	N
26:46	578240	N
26:46	578492	N
26:47	578746	N
26:48	579002	N
26:49	579258	N
26:49	579508	N
26:50	579760	N
26:51	580017	N
26:51	580276	N
26:52	580535	N
26:53	580792	N
26:54	581055	N
26:54	581315	N
26:55	581571	N
26:56	581833	N
26:56	582088	N
26:57	582339	N
26:58	582590	N
26:58	582834	N
26:59	583080	N
27:00	583331	N
27:01	583580	N
27:01	583826	N
27:02	584066	N
27:03	584309	N
27:03	584550	N
27:04	584793	N
27:05	585041	N
27:05	585292	N
27:06	585549	N
27:07	585799	N
27:07	586053	N
27:08	586307	N
27:09	586561	N
27:10	586807	N
27:10	587051	N
27:11	587290	N
27:12	587522	N
27:12	587757	N
27:13	587997	N
27:14	588241	N
27:14	588488	N
27:15	588750	N
27:16	589004	N
27:16	589251	N
27:17	589494	N
27:18	589744	N
27:18	589991	N
27:19	590233	N
27:20	590476	N
27:20	590718	N
27:21	590898	+
27:21	590967	N
27:22	591226	N
27:22	591479	N
27:23	591731	N
27:24	591986	N
27:25	592236	N
27:25	592491	N
27:26	592741	N
27:27	593004	N
27:27	593264	N
27:28	593524	N
27:29	593780	N
27:30	594042	N
27:30	594310	N
27:31	594588	N
27:32	594874	N
27:32	595066	+
27:33	595168	N
27:34	595448	N
27:34	595719	N
27:35	595887	+
27:35	595982	N
27:36	596242	N
27:36	596415	+
27:36	596500	N
27:37	596755	N
27:38	597009	N
27:39	597268	N
27:39	597531	N
27:40	597789	N
27:41	597970	+
27:41	598061	N
27:42	598338	N
27:42	598609	N
27:43	598877	N
27:44	599124	N
27:44	599287	+
27:44	599376	N
27:45	599620	N
27:46	599861	N
27:46	600103	N
27:47	600332	N
27:48	600568	N
27:48	600807	N
27:49	601040	N
27:50	601283	N
27:50	601525	N
27:51	601766	N
27:52	601999	N
27:52	602232	N
27:53	602467	N
27:54	602706	N
27:54	602950	N
27:55	603198	N
27:56	603452	N
27:57	603724	N
27:57	604007	N
27:58	604300	N
27:59	604604	N
28:00	604908	N
28:01	605199	N
28:01	605487	N
28:02	605772	N
28:03	606061	N
28:04	606342	N
28:05	606619	N
28:05	606894	N
28:06	607170	N
28:07	607448	N
28:08	607728	N
28:08	607992	N
28:09	608252	N
28:10	608520	N
28:11	608781	N
28:11	609051	N
28:12	609332	N
28:13	609611	N
28:14	609896	N
28:14	610165	N
28:15	610431	N
28:16	610689	N
28:17	610945	N
28:17	611186	N
28:18	611430	N
28:18	611580	+
28:19	611669	N
28:19	611912	N
28:20	612151	N
28:21	612399	N
28:21	612653	N
28:22	612904	N
28:23	613158	N
28:23	613318	+
28:23	613407	N
28:24	613658	N
28:25	613905	N
28:25	614154	N
28:26	614400	N
28:27	614647	N
28:28	614886	N
28:28	615125	N
28:29	615365	N
28:30	615612	N
28:30	615855	N
28:31	616088	N
28:32	616332	N
28:32	616570	N
28:33	616813	N
28:34	617074	N
28:34	617338	N
28:35	617609	N
28:36	617887	N
28:37	618164	N
28:37	618436	N
28:38	618699	N
28:39	618962	N
28:40	619218	N
28:40	619469	N
28:41	619719	N
28:42	619975	N
28:42	620228	N
28:43	620476	N
28:44	620732	N
28:44	620987	N
28:45	621242	N
28:46	621502	N
28:47	621764	N
28:47	622037	N
28:48	622321	N
28:49	622592	N
28:50	622867	N
28:50	623136	N
28:51	623406	N
28:52	623672	N
28:53	623932	N
28:53	624188	N
28:54	624445	N
28:55	624697	N
28:55	624952	N
28:56	625203	N
28:57	625461	N
28:58	625726	N
28:58	625981	N
28:59	626237	N
29:00	626501	N
29:01	626765	N
29:01	627028	N
29:02	627300	N
29:03	627571	N
29:03	627836	N
29:04	628107	N
29:05	628376	N
29:06	628640	N
29:06	628900	N
29:07	629149	N
29:08	629357	V
29:08	629525	+
29:08	629606	N
29:09	629841	N
29:10	630081	N
29:10	630315	N
29:11	630559	N
29:12	630809	N
29:12	631055	N
29:13	631306	N
29:14	631560	N
29:15	631821	N
29:15	632111	N
29:16	632399	N
29:17	632701	N
29:18	632985	N
29:19	633266	N
29:19	633545	N
29:20	633829	N
29:21	634119	N
29:22	634392	N
29:22	634665	N
29:23	634937	N
29:24	635217	N
29:25	635499	N
29:25	635670	+
29:26	635775	N
29:26	635967	+
29:26	636040	N
29:27	636301	N
29:28	636561	N
29:28	636815	N
29:29	637074	N
29:30	637344	N
29:31	637603	N
29:31	637868	N
29:32	638124	N
29:33	638385	N
29:34	638658	N
29:34	638926	N
29:35	639186	N
29:36	639441	N
29:36	639697	N
29:37	639952	N
29:38	640209	N
29:39	640459	N
29:39	640706	N
29:40	640950	N
29:41	641200	N
29:41	641457	N
29:42	641730	N
29:43	642002	N
29:44	642281	N
29:44	642556	N
29:45	642842	N
29:46	643142	N
29:47	643441	N
29:48	643734	N
29:48	644017	N
29:49	644294	N
29:50	644571	N
29:51	644843	N
29:51	645118	N
29:52	645382	N
29:53	645650	N
29:54	645918	N
29:54	646193	N
29:55	646477	N
29:56	646753	N
29:57	647037	N
29:58	647314	N
29:58	647590	N
29:59	647861	N
30:00	648124	N
30:01	648385	N
30:01	648554	+
30:01	648628	N
30:02	648871	N
30:03	649106	N
30:03	649338	N
30:04	649572	N
30:05	649807	N
