0:00	180	R
0:01	527	R
0:02	847	R
0:03	1166	R
0:04	1512	R
0:05	1833	R
0:05	2083	"
0:06	2460	R
0:07	2789	R
0:08	3088	R
0:09	3420	R
0:10	3754	R
0:11	4058	R
0:12	4386	R
0:13	4720	R
0:13	5035	R
0:14	5378	R
0:15	5740	R
0:16	6060	R
0:17	6415	R
0:18	6799	R
0:19	7122	R
0:20	7480	R
0:21	7827	R
0:22	8138	R
0:23	8478	R
0:24	8818	R
0:25	9137	R
0:26	9497	R
0:27	9853	R
0:28	10182	R
0:29	10538	R
0:30	10893	R
0:31	11224	R
0:32	11582	R
0:33	11917	R
0:33	12236	R
0:34	12589	R
0:35	12941	R
0:36	13261	R
0:37	13618	R
0:38	13949	R
0:39	14283	R
0:40	14626	R
0:41	14968	R
0:42	15288	R
0:43	15638	R
0:44	15977	R
0:45	16305	R
0:46	16651	R
0:47	17018	R
0:48	17353	R
0:49	17707	R
0:50	18049	R
0:51	18371	R
0:51	18715	R
0:52	19055	R
0:53	19366	R
0:54	19721	R
0:55	20054	R
0:56	20374	R
0:57	20730	R
0:58	21068	R
0:59	21383	R
1:00	21731	R
1:01	22060	R
1:02	22378	R
1:03	22726	R
1:04	23074	R
1:04	23396	R
1:05	23747	R
1:06	24084	R
1:07	24405	R
1:08	24769	R
1:09	25120	R
1:10	25446	R
1:11	25810	R
1:12	26157	R
1:13	26492	R
1:14	26841	R
1:15	27195	R
1:16	27546	R
1:17	27874	R
1:18	28205	R
1:19	28557	R
1:20	28888	R
1:21	29234	R
1:22	29593	R
1:23	29926	R
1:24	30280	R
1:25	30637	R
1:26	30975	R
1:27	31325	R
1:28	31692	R
1:28	32019	R
1:29	32360	R
1:30	32704	R
1:31	33027	R
1:32	33357	R
1:33	33712	R
1:34	34026	R
1:35	34275	"
1:36	34652	N
1:37	34976	R
1:37	35142	+
1:37	35220	"
1:38	35587	N
1:39	35853	"
1:40	36208	N
1:41	36474	"
1:42	36840	N
1:43	37090	"
1:44	37444	N
1:44	37713	"
1:45	38056	N
1:46	38298	"
1:47	38654	N
1:48	38919	"
1:49	39264	N
1:49	39509	"
1:50	39863	N
1:51	40096	"
1:52	40458	N
1:53	40707	"
1:54	41059	N
1:54	41291	"
1:55	41648	N
1:56	41892	"
1:57	42221	R
1:57	42444	"
1:58	42788	R
1:59	43024	"
2:00	43357	R
2:01	43597	"
2:02	43937	R
2:02	44177	"
2:03	44526	R
2:04	44767	"
2:05	45113	R
2:05	45342	"
2:06	45692	R
2:07	45926	"
2:08	46256	R
2:09	46490	"
2:10	46817	R
2:10	47050	"
2:11	47398	R
2:12	47658	"
2:13	48009	R
2:14	48249	"
2:14	48598	R
2:15	48834	"
2:16	49184	R
2:17	49431	"
2:18	49782	R
2:18	50031	"
2:19	50372	R
2:20	50616	"
2:21	50970	R
2:22	51207	"
2:23	51559	R
2:23	51802	"
2:24	52143	R
2:25	52315	x
2:26	52598	A
2:27	52995	R
2:27	53176	x
2:27	53239	V
2:28	53392	V
2:28	53625	+
2:29	53780	R
2:30	54109	R
2:31	54441	R
2:32	54771	R
2:33	55090	R
2:33	55426	R
2:34	55789	R
2:35	56118	R
2:36	56479	R
2:37	56844	R
2:38	57192	R
2:39	57568	R
2:40	57932	R
2:41	58262	R
2:42	58604	R
2:43	58936	R
2:44	59265	R
2:45	59606	R
2:46	59959	R
2:47	60294	R
2:48	60657	R
2:49	61029	R
2:50	61370	R
2:51	61748	R
2:52	62120	R
2:53	62478	R
2:54	62854	R
2:55	63230	R
2:56	63573	R
2:57	63939	R
2:58	64281	R
2:59	64621	R
3:00	65004	R
3:01	65351	R
3:02	65701	R
3:03	66056	R
3:04	66394	R
3:05	66731	R
3:06	67097	R
3:07	67453	R
3:08	67825	R
3:09	68199	R
3:10	68548	R
3:11	68893	R
3:12	69244	R
3:13	69585	R
3:14	69934	R
3:15	70283	R
3:16	70634	R
3:17	70984	R
3:18	71334	R
3:19	71695	R
3:20	72036	R
3:21	72387	R
3:22	72744	R
3:23	73083	R
3:23	73433	R
3:24	73793	R
3:25	74123	R
3:26	74487	R
3:27	74837	R
3:28	75177	R
3:29	75532	R
3:30	75898	R
3:31	76233	R
3:32	76592	R
3:33	76955	R
3:34	77294	R
3:35	77653	R
3:36	78011	R
3:37	78337	R
3:38	78680	R
3:39	79028	R
3:40	79345	R
3:41	79685	R
3:42	80032	R
3:43	80342	R
3:44	80671	R
3:45	81026	R
3:45	81344	R
3:46	81676	R
3:47	82037	R
3:48	82371	R
3:49	82690	R
3:50	83045	R
3:51	83376	R
3:52	83692	R
3:53	84042	R
3:54	84376	R
3:55	84685	R
3:56	85036	R
3:57	85367	R
3:57	85678	R
3:58	86009	R
3:59	86336	R
4:00	86644	R
4:01	86978	R
4:02	87324	R
4:03	87649	R
4:04	87991	R
4:05	88363	R
4:06	88714	R
4:07	89054	R
4:08	89411	R
4:09	89752	R
4:10	90083	R
4:11	90426	R
4:12	90758	R
4:13	91082	R
4:13	91423	R
4:14	91786	R
4:15	92113	R
4:16	92457	R
4:17	92816	R
4:18	93168	R
4:19	93508	R
4:20	93868	R
4:21	94192	R
4:22	94522	R
4:23	94867	R
4:24	95208	R
4:25	95527	R
4:26	95886	R
4:27	96207	R
4:28	96540	R
4:29	96886	R
4:30	97233	R
4:30	97557	R
4:31	97917	R
4:32	98261	R
4:33	98578	R
4:34	98923	R
4:35	99269	R
4:36	99597	R
4:37	99931	R
4:38	100285	R
4:39	100604	R
4:40	100945	R
4:41	101283	R
4:42	101596	R
4:43	101956	R
4:44	102308	R
4:45	102631	R
4:46	102985	R
4:47	103328	R
4:47	103649	R
4:48	103997	R
4:49	104330	R
4:50	104651	R
4:51	105012	R
4:52	105354	R
4:53	105683	R
4:54	106043	R
4:55	106389	R
4:56	106720	R
4:57	107085	R
4:58	107428	R
4:59	107764	R
5:00	108120	R
5:01	108462	R
5:02	108790	R
5:03	109140	R
5:04	109475	R
5:05	109808	R
5:05	110152	R
5:06	110490	R
5:07	110822	R
5:08	111172	R
5:09	111531	R
5:10	111895	R
5:11	112220	R
5:12	112568	R
5:13	112919	R
5:14	113248	R
5:15	113595	R
5:16	113947	R
5:17	114266	R
5:18	114617	R
5:19	114964	R
5:20	115286	R
5:21	115619	R
5:22	115962	R
5:22	116268	R
5:23	116604	R
5:24	116935	R
5:25	117253	R
5:26	117597	R
5:27	117967	R
5:28	118277	R
5:29	118625	R
5:30	118956	R
5:31	119218	"
5:32	119586	N
5:33	119920	R
5:33	120082	+
5:33	120168	"
5:34	120528	N
5:35	120788	"
5:36	121158	N
5:37	121420	"
5:38	121792	N
5:39	122041	"
5:39	122399	N
5:40	122660	"
5:41	123028	N
5:42	123280	"
5:43	123617	R
5:44	123879	"
5:45	124212	R
5:45	124458	"
5:46	124796	R
5:47	125038	"
5:48	125390	R
5:48	125638	"
5:49	125983	R
5:50	126223	"
5:51	126571	R
5:52	126811	"
5:53	127169	R
5:53	127410	"
5:54	127760	R
5:55	128007	"
5:56	128357	R
5:57	128597	"
5:58	128937	R
5:58	129192	"
5:59	129534	R
6:00	129794	"
6:01	130142	R
6:02	130393	"
6:03	130741	R
6:03	130990	"
6:04	131333	R
6:05	131559	"
6:06	131917	R
6:07	132166	"
6:08	132504	R
6:08	132737	"
6:09	133098	R
6:10	133348	"
6:11	133710	N
6:12	133965	"
6:13	134328	N
6:13	134588	"
6:14	134960	N
6:15	135227	"
6:16	135588	N
6:17	135844	"
6:18	136196	N
6:19	136445	"
6:19	136789	N
6:20	137036	"
6:21	137380	R
6:22	137608	"
6:23	137958	R
6:23	138209	"
6:24	138546	R
6:25	138788	"
6:26	139135	R
6:27	139384	"
6:28	139726	R
6:28	139981	"
6:29	140324	R
6:30	140564	"
6:31	140911	R
6:32	141164	"
6:33	141497	R
6:33	141743	"
6:34	142076	R
6:35	142312	"
6:36	142650	R
6:36	142879	"
6:37	143212	R
6:38	143442	"
6:39	143785	R
6:40	144033	"
6:41	144377	R
6:41	144624	"
6:42	144962	R
6:43	145216	"
6:44	145553	R
6:44	145798	"
6:45	146154	N
6:46	146390	"
6:47	146739	N
6:48	146971	"
6:49	147328	N
6:49	147577	"
6:50	147947	N
6:51	148192	"
6:52	148541	N
6:53	148799	"
6:54	149156	N
6:54	149398	"
6:55	149750	N
6:56	149994	"
6:57	150328	N
6:58	150578	"
6:59	150922	N
6:59	151166	"
7:00	151508	N
7:01	151768	"
7:02	152128	N
7:03	152376	"
7:04	152722	N
7:04	152976	"
7:05	153335	N
7:06	153584	"
7:07	153947	N
7:08	154182	"
7:09	154535	N
7:09	154785	"
7:10	155139	N
7:11	155375	"
7:12	155715	N
7:13	155957	"
7:14	156290	N
7:14	156527	"
7:15	156869	N
7:16	157120	"
7:17	157455	N
7:18	157704	"
7:19	158055	N
7:19	158288	"
7:20	158630	N
7:21	158868	"
7:22	159212	N
7:22	159436	"
7:23	159779	N
7:24	160022	"
7:25	160365	N
7:26	160612	"
7:27	160959	N
7:27	161198	"
7:28	161534	N
7:29	161788	"
7:30	162132	N
7:31	162360	"
7:31	162704	N
7:32	162953	"
7:33	163301	N
7:34	163537	"
7:35	163891	N
7:35	164141	"
7:36	164490	N
7:37	164737	"
7:38	165111	N
7:39	165355	"
7:40	165723	N
7:41	165977	"
7:42	166321	N
7:42	166582	"
7:43	166941	N
7:44	167203	"
7:45	167553	N
7:46	167797	"
7:47	168169	N
7:47	168421	"
7:48	168782	N
7:49	169055	"
7:50	169424	N
7:51	169676	"
7:52	170054	N
7:53	170313	"
7:54	170678	N
7:54	170951	"
7:55	171323	N
7:56	171567	"
7:57	171936	N
7:58	172183	"
7:59	172530	N
7:59	172761	"
8:00	173129	N
8:01	173372	"
8:02	173722	N
8:03	173981	"
8:04	174329	N
8:04	174577	"
8:05	174937	N
8:06	175199	"
8:07	175543	N
8:08	175794	"
8:09	176150	N
8:09	176394	"
8:10	176737	N
8:11	176971	"
8:12	177321	N
8:13	177555	"
8:14	177918	N
8:14	178161	"
8:15	178506	N
8:16	178749	"
8:17	179114	N
8:18	179361	"
8:19	179708	N
8:19	179950	"
8:20	180291	N
8:21	180548	"
8:22	180887	N
8:23	181133	"
8:24	181481	N
8:24	181748	"
8:25	182112	N
8:26	182356	"
8:27	182720	N
8:28	182981	"
8:29	183344	N
8:29	183583	"
8:30	183946	N
8:31	184201	"
8:32	184557	N
8:33	184806	"
8:34	185166	N
8:35	185416	"
8:36	185792	N
8:36	186033	"
8:37	186385	N
8:38	186643	"
8:39	187010	N
8:40	187265	"
8:41	187630	N
8:41	187889	"
8:42	188246	N
8:43	188492	"
8:44	188855	N
8:45	189102	"
8:46	189437	N
8:46	189679	"
8:47	190038	N
8:48	190278	"
8:49	190637	N
8:50	190881	"
8:51	191243	N
8:51	191494	"
8:52	191860	N
8:53	192097	"
8:54	192440	N
8:55	192688	"
8:56	193043	N
8:56	193283	"
8:57	193620	N
8:58	193874	"
8:59	194227	N
9:00	194455	"
9:01	194800	N
9:01	195036	"
9:02	195385	N
9:03	195608	"
9:04	195959	N
9:05	196204	"
9:05	196542	N
9:06	196777	"
9:07	197141	N
9:08	197386	"
9:09	197748	N
9:10	198001	"
9:10	198348	N
9:11	198586	"
9:12	198938	N
9:13	199191	"
9:14	199529	N
9:14	199774	"
9:15	200117	N
9:16	200346	"
9:17	200688	N
9:18	200919	"
9:19	201263	N
9:19	201510	"
9:20	201877	N
9:21	202121	"
9:22	202337	+
9:22	202466	N
9:23	202778	R
9:24	203082	R
9:25	203401	R
9:25	203759	R
9:26	204097	R
9:27	204451	R
9:28	204824	R
9:29	205179	R
9:30	205515	R
9:31	205886	R
9:32	206224	R
9:33	206546	R
9:34	206875	R
9:35	207202	R
9:36	207510	R
9:37	207849	R
9:38	208172	R
9:39	208473	R
9:40	208803	R
9:40	209149	R
9:41	209462	R
9:42	209802	R
9:43	210145	R
9:44	210459	R
9:45	210799	R
9:46	211144	R
9:47	211462	R
9:48	211795	R
9:49	212146	R
9:50	212489	R
9:51	212820	R
9:52	213206	R
9:53	213569	R
9:54	213922	R
9:55	214290	R
9:56	214653	R
9:57	215020	R
9:58	215397	R
9:59	215762	R
10:00	216106	R
10:01	216446	R
10:02	216793	R
10:03	217130	R
10:04	217489	R
10:05	217859	R
10:06	218203	R
10:07	218573	R
10:08	218946	R
10:09	219307	R
10:10	219670	R
10:11	220031	R
10:12	220365	R
10:13	220719	R
10:14	221073	R
10:15	221401	R
10:15	221755	R
10:16	222104	R
10:17	222426	R
10:18	222780	R
10:19	223139	R
10:20	223462	R
10:21	223820	R
10:22	224158	R
10:23	224477	R
10:24	224822	R
10:25	225157	R
10:26	225471	R
10:27	225825	R
10:28	226174	R
10:29	226503	R
10:30	226836	R
10:31	227184	R
10:32	227520	R
10:32	227846	R
10:33	228180	R
10:34	228497	R
10:35	228803	R
10:36	229130	R
10:37	229461	R
10:38	229793	R
10:39	230115	R
10:40	230482	R
10:41	230833	R
10:42	231164	R
10:43	231543	R
10:44	231928	R
10:45	232261	R
10:46	232614	R
10:47	232972	R
10:48	233298	R
10:49	233650	R
10:50	234011	R
10:50	234330	R
10:51	234676	R
10:52	235029	R
10:53	235345	R
10:54	235690	R
10:55	236036	R
10:56	236343	R
10:57	236678	R
10:58	237027	R
10:59	237349	R
11:00	237669	R
11:01	237997	R
11:01	238316	R
11:02	238629	R
11:03	238964	R
11:04	239298	R
11:05	239631	R
11:06	239955	R
11:07	240322	R
11:08	240676	R
11:09	241005	R
11:10	241358	R
11:11	241717	R
11:12	242047	R
11:13	242398	R
11:14	242753	R
11:15	243086	R
11:16	243446	R
11:17	243804	R
11:18	244128	R
11:19	244475	R
11:20	244816	R
11:20	245137	R
11:21	245461	R
11:22	245809	R
11:23	246139	R
11:24	246460	R
11:25	246806	R
11:26	247152	R
11:27	247468	R
11:28	247818	R
11:29	248155	R
11:30	248479	R
11:31	248814	R
11:32	249156	R
11:32	249469	R
11:33	249810	R
11:34	250148	R
11:35	250470	R
11:36	250807	R
11:37	251159	R
11:38	251475	R
11:39	251802	R
11:40	252139	R
11:41	252483	R
11:42	252805	R
11:43	253168	R
11:44	253518	R
11:45	253854	R
11:46	254192	R
11:47	254542	R
11:47	254873	R
11:48	255216	R
11:49	255557	R
11:50	255887	R
11:51	256228	R
11:52	256558	R
11:53	256822	"
11:54	257202	N
11:55	257519	R
11:56	257838	R
11:57	258168	R
11:58	258506	R
11:58	258833	R
11:59	259193	R
12:00	259550	R
12:01	259891	R
12:02	260237	R
12:03	260591	R
12:04	260935	R
12:05	261274	R
12:06	261625	R
12:07	261962	R
12:08	262284	R
12:09	262627	R
12:10	262958	R
12:11	263271	R
12:12	263624	R
12:13	263965	R
12:14	264273	R
12:15	264619	R
12:16	264972	R
12:16	265306	R
12:17	265649	R
12:18	266000	R
12:19	266341	R
12:20	266682	R
12:21	267047	R
12:22	267402	R
12:23	267749	R
12:24	268107	R
12:25	268450	R
12:26	268788	R
12:27	269130	R
12:28	269465	R
12:29	269783	R
12:30	270112	R
12:31	270439	R
12:32	270755	R
12:33	271083	R
12:33	271405	R
12:34	271722	R
12:35	272051	R
12:36	272389	R
12:37	272711	R
12:38	273082	R
12:39	273436	R
12:40	273783	R
12:41	274132	R
12:42	274483	R
12:43	274814	R
12:44	275162	R
12:45	275485	R
12:46	275803	R
12:47	276129	R
12:47	276465	R
12:48	276784	R
12:49	277148	R
12:50	277511	R
12:51	277864	R
12:52	278222	R
12:53	278591	R
12:54	278951	R
12:55	279281	R
12:56	279629	R
12:57	279988	R
12:58	280320	R
12:59	280663	R
13:00	281011	R
13:01	281342	R
13:02	281679	R
13:03	282014	R
13:04	282346	R
13:05	282673	R
13:06	283035	R
13:07	283387	R
13:08	283729	R
13:09	284078	R
13:10	284427	R
13:11	284761	R
13:11	285111	R
13:12	285453	R
13:13	285784	R
13:14	286108	R
13:15	286447	R
13:16	286771	R
13:17	287105	R
13:18	287442	R
13:19	287766	R
13:19	287941	+
13:20	288016	"
13:21	288381	N
13:21	288648	"
13:22	288998	N
13:23	289257	"
13:24	289634	N
13:25	289892	"
13:26	290248	N
13:26	290514	"
13:28	290882	N
13:28	291130	"
13:29	291486	N
13:30	291738	"
13:31	292078	R
13:31	292311	"
13:32	292654	R
13:33	292893	"
13:34	293228	R
13:35	293481	"
13:36	293815	R
13:36	294041	"
13:37	294384	R
13:38	294640	"
13:39	294987	R
13:40	295223	"
13:41	295575	R
13:41	295819	"
13:42	296157	R
13:43	296395	"
13:44	296740	R
13:44	296978	"
13:45	297320	R
13:46	297575	"
13:47	297915	R
13:48	298160	"
13:49	298517	R
13:49	298773	"
13:50	299105	R
13:51	299344	"
13:52	299695	R
13:53	299924	"
13:54	300268	R
13:54	300499	"
13:55	300839	R
13:56	301079	"
13:57	301417	R
13:57	301656	"
13:58	301988	R
13:59	302237	"
14:00	302591	R
14:01	302837	"
14:02	303179	R
14:02	303447	"
14:03	303816	N
14:04	304066	"
14:05	304426	N
14:06	304684	"
14:07	305036	N
14:08	305281	"
14:08	305636	N
14:09	305872	"
14:10	306215	N
14:11	306462	"
14:12	306815	N
14:12	307055	"
14:13	307395	N
14:14	307646	"
14:15	307984	N
14:16	308227	"
14:17	308569	N
14:17	308825	"
14:18	309174	N
14:19	309438	"
14:20	309796	N
14:21	310033	"
14:22	310384	N
14:22	310638	"
14:23	311002	N
14:24	311248	"
14:25	311612	N
14:26	311861	"
14:27	312229	N
14:27	312471	"
14:29	312841	N
14:29	313094	"
14:30	313460	N
14:31	313721	"
14:32	314067	N
14:33	314304	"
14:34	314666	N
14:34	314900	"
14:35	315238	N
14:36	315499	"
14:37	315835	N
14:37	316072	"
14:38	316429	N
14:39	316685	"
14:40	317033	N
14:41	317276	"
14:42	317640	N
14:43	317892	"
14:44	318252	N
14:44	318506	"
14:45	318864	N
14:46	319093	"
14:47	319461	N
14:48	319711	"
14:49	320054	N
14:49	320302	"
14:50	320667	N
14:51	320922	"
14:52	321285	N
14:53	321539	"
14:54	321884	N
14:54	322131	"
14:55	322490	N
14:56	322745	"
14:57	323087	N
14:58	323346	"
14:59	323713	N
14:59	323958	"
15:00	324327	N
15:01	324585	"
15:02	324937	N
15:03	325198	"
15:04	325556	N
15:04	325797	"
15:05	326143	N
15:06	326392	"
15:07	326746	N
15:08	326995	"
15:09	327341	N
15:09	327593	"
15:10	327938	N
15:11	328189	"
15:12	328541	N
15:13	328779	"
15:14	329132	N
15:14	329397	"
15:15	329744	N
15:16	329986	"
15:17	330341	N
15:18	330589	"
15:19	330942	N
15:19	331197	"
15:20	331555	N
15:21	331807	"
15:22	332154	N
15:23	332402	"
15:24	332749	N
15:24	332995	"
15:25	333351	N
15:26	333589	"
15:27	333932	N
15:28	334179	"
15:29	334532	N
15:29	334774	"
15:30	335116	N
15:31	335375	"
15:32	335737	N
15:33	335974	"
15:34	336336	N
15:34	336593	"
15:35	336943	N
15:36	337201	"
15:37	337571	N
15:38	337816	"
15:39	338172	N
15:40	338430	"
15:41	338797	N
15:41	339033	"
15:42	339404	N
15:43	339662	"
15:44	340015	N
15:45	340262	"
15:46	340614	N
15:46	340861	"
15:47	341196	N
15:48	341449	"
15:49	341787	N
15:50	342040	"
15:51	342388	N
15:51	342644	"
15:52	342991	N
15:53	343254	"
15:54	343619	N
15:55	343864	"
15:56	344215	N
15:56	344475	"
15:57	344830	N
15:58	345068	"
15:59	345431	N
16:00	345675	"
16:01	346020	N
16:01	346252	"
16:02	346606	N
16:03	346857	"
16:04	347210	N
16:05	347468	"
16:06	347817	N
16:06	348058	"
16:07	348420	N
16:08	348674	"
16:09	349025	N
16:10	349285	"
16:11	349631	N
16:11	349879	"
16:12	350244	N
16:13	350486	"
16:14	350832	N
16:15	351070	"
16:16	351430	N
16:16	351673	"
16:17	352005	N
16:18	352234	"
16:19	352585	N
16:20	352829	"
16:21	353174	N
16:21	353420	"
16:22	353758	N
16:23	354005	"
16:24	354360	N
16:24	354597	"
16:25	354940	N
16:26	355199	"
16:27	355549	N
16:28	355781	"
16:29	356126	N
16:29	356368	"
16:30	356708	N
16:31	356943	"
16:32	357299	N
16:33	357544	"
16:34	357880	N
16:34	358130	"
16:35	358489	N
16:36	358736	"
16:37	359089	N
16:38	359358	"
16:39	359720	N
16:39	359971	"
16:40	360340	N
16:41	360611	"
16:42	360965	N
16:43	361226	"
16:44	361583	N
16:45	361822	"
16:46	362172	N
16:46	362421	"
16:47	362762	N
16:48	362999	"
16:49	363356	N
16:50	363604	"
16:51	363960	N
16:51	364192	"
16:52	364553	N
16:53	364799	"
16:54	365159	N
16:55	365411	"
16:55	365751	N
16:56	366001	"
16:57	366352	N
16:58	366599	"
16:59	366948	N
16:59	367197	"
17:00	367542	N
17:01	367795	"
17:02	368145	N
17:03	368404	"
17:04	368752	N
17:04	368993	"
17:06	369361	N
17:06	369616	"
17:07	369968	N
17:08	370224	"
17:09	370587	N
17:10	370848	"
17:11	371228	N
17:11	371484	"
17:12	371838	N
17:13	372088	"
17:14	372443	N
17:15	372679	"
17:16	373023	N
17:16	373272	"
17:17	373609	N
17:18	373854	"
17:19	374209	N
17:20	374460	"
17:21	374824	N
17:21	375095	"
17:22	375459	N
17:23	375703	"
17:24	375925	+
17:24	376064	N
17:25	376379	R
17:26	376677	R
17:27	377028	R
17:28	377370	R
17:29	377689	R
17:30	378070	R
17:31	378455	R
17:32	378817	R
17:33	379216	R
17:34	379578	R
17:35	379932	R
17:36	380300	R
17:37	380645	R
17:38	380990	R
17:39	381350	R
17:40	381694	R
17:41	382027	R
17:42	382367	R
17:43	382705	R
17:44	383040	R
17:44	383379	R
17:45	383723	R
17:46	384042	R
17:47	384400	R
17:48	384754	R
17:49	385099	R
17:50	385448	R
17:51	385799	R
17:52	386130	R
17:53	386492	R
17:54	386850	R
17:55	387195	R
17:56	387549	R
17:57	387898	R
17:58	388225	R
17:59	388562	R
18:00	388889	R
18:01	389207	R
18:02	389528	R
18:02	389858	R
18:03	390180	R
18:04	390531	R
18:05	390901	R
18:06	391247	R
18:07	391601	R
18:08	391968	R
18:09	392312	R
18:10	392660	R
18:11	393029	R
18:12	393361	R
18:13	393709	R
18:14	394071	R
18:15	394412	R
18:16	394770	R
18:17	395150	R
18:18	395487	R
18:19	395832	R
18:20	396170	R
18:21	396485	R
18:22	396820	R
18:23	397164	R
18:24	397474	R
18:25	397822	R
18:26	398184	R
18:26	398511	R
18:27	398863	R
18:29	399244	R
18:29	399591	R
18:30	399928	R
18:31	400279	R
18:32	400623	R
18:33	400961	R
18:34	401311	R
18:35	401669	R
18:36	402005	R
18:37	402376	R
18:38	402733	R
18:39	403076	R
18:40	403413	R
18:41	403744	R
18:42	404067	R
18:43	404406	R
18:44	404746	R
18:45	405063	R
18:46	405388	R
18:47	405725	R
18:47	406050	R
18:48	406385	R
18:49	406755	R
18:50	407106	R
18:51	407430	R
18:52	407777	R
18:53	408124	R
18:54	408435	R
18:55	408785	R
18:56	409128	R
18:57	409441	R
18:58	409752	R
18:59	410082	R
19:00	410400	R
19:00	410727	R
19:01	411074	R
19:02	411430	R
19:03	411766	R
19:04	412143	R
19:05	412494	R
19:06	412844	R
19:07	413195	R
19:08	413544	R
19:09	413874	R
19:10	414224	R
19:11	414573	R
19:12	414914	R
19:13	415265	R
19:14	415613	R
19:15	415944	R
19:16	416291	R
19:17	416633	R
19:18	416967	R
19:19	417307	R
19:20	417658	R
19:21	418007	R
19:22	418333	R
19:22	418672	R
19:23	419030	R
19:24	419346	R
19:25	419703	R
19:26	420088	R
19:27	420425	R
19:28	420817	R
19:29	421189	R
19:30	421531	R
19:31	421870	R
19:32	422209	R
19:33	422526	R
19:34	422890	R
19:35	423254	R
19:36	423594	R
19:37	423969	R
19:38	424333	R
19:39	424676	R
19:40	425045	R
19:41	425390	R
19:42	425720	R
19:43	426061	R
19:44	426390	R
19:45	426728	R
19:46	427067	R
19:47	427402	R
19:48	427762	R
19:49	428116	R
19:50	428457	R
19:51	428828	R
19:52	429178	R
19:53	429506	R
19:54	429870	R
19:55	430234	R
19:56	430581	R
19:57	430972	R
19:58	431347	R
19:59	431705	R
20:00	432067	R
20:01	432411	R
20:02	432750	R
20:02	433065	R
20:03	433387	R
20:04	433692	R
20:05	433855	+
20:05	433946	"
20:06	434287	R
20:07	434534	"
20:08	434894	R
20:08	435127	"
20:09	435475	R
20:10	435717	"
20:11	436069	R
20:11	436311	"
20:12	436666	R
20:13	436917	"
20:14	437262	R
20:15	437514	"
20:16	437877	R
20:17	438126	"
20:18	438484	R
20:18	438724	"
20:19	439083	R
20:20	439338	"
20:21	439689	R
20:22	439940	"
20:22	440275	R
20:23	440543	"
20:24	440900	R
20:25	441130	"
20:26	441481	R
20:27	441729	"
20:28	442095	R
20:28	442337	"
20:29	442689	R
20:30	442931	"
20:31	443280	R
20:32	443525	"
20:32	443870	R
20:33	444107	"
20:34	444438	R
20:35	444683	"
20:36	445020	R
20:36	445260	"
20:37	445603	R
20:38	445850	"
20:39	446187	R
20:40	446422	"
20:41	446770	R
20:41	447011	"
20:42	447349	R
20:43	447599	"
20:44	447958	R
20:45	448216	"
20:45	448425	+
20:46	448583	R
20:46	448891	R
20:47	449200	R
20:48	449567	R
20:49	449942	R
20:50	450300	R
20:52	450728	R
20:53	451121	R
20:54	451490	R
20:55	451859	R
20:56	452198	R
20:57	452553	R
20:58	452904	R
20:59	453250	R
20:59	453579	R
21:00	453905	R
21:01	454224	R
21:02	454575	R
21:03	454916	R
21:04	455251	R
21:05	455616	R
21:06	455974	R
21:07	456313	R
21:08	456672	R
21:09	457008	R
21:10	457331	R
21:11	457682	R
21:12	458000	R
21:13	458325	R
21:14	458645	R
21:14	458808	+
21:14	458878	"
21:15	459236	R
21:16	459476	"
21:17	459830	R
21:17	460069	"
21:18	460417	R
21:19	460667	"
21:20	461002	R
21:21	461245	"
21:22	461595	R
21:22	461832	"
21:23	462176	R
21:24	462424	"
21:25	462762	R
21:26	463002	"
21:27	463354	R
21:27	463604	"
21:28	463956	R
21:29	464207	"
21:30	464563	R
21:31	464816	"
21:32	465164	R
21:32	465418	"
21:33	465774	R
21:34	466011	"
21:35	466372	R
21:36	466613	"
21:37	466941	R
21:37	467176	"
21:38	467520	R
21:39	467759	"
21:40	468106	R
21:41	468360	"
21:41	468709	R
21:42	468960	"
21:43	469323	N
21:44	469591	"
21:45	469943	N
21:46	470220	"
21:47	470592	N
21:47	470844	"
21:48	471207	N
21:49	471473	"
21:50	471838	N
21:51	472080	"
21:52	472446	N
21:53	472692	"
21:54	473043	N
21:54	473278	"
21:55	473635	N
21:56	473875	"
21:57	474222	N
21:57	474465	"
21:58	474808	N
21:59	475054	"
22:00	475414	N
22:01	475657	"
22:02	476006	N
22:02	476257	"
22:03	476611	N
22:04	476846	"
22:05	477208	N
22:06	477459	"
22:07	477801	N
22:07	478040	"
22:08	478411	N
22:09	478646	"
22:10	479012	N
22:11	479272	"
22:12	479630	N
22:12	479864	"
22:13	480237	N
22:14	480488	"
22:15	480849	N
22:16	481122	"
22:17	481486	N
22:18	481735	"
22:19	482086	N
22:19	482349	"
22:20	482710	N
22:21	482949	"
22:22	483309	N
22:23	483585	"
22:24	483928	N
22:24	484178	"
22:25	484534	N
22:26	484778	"
22:27	485139	N
22:28	485393	"
22:29	485739	N
22:29	485986	"
22:30	486341	N
22:31	486576	"
22:32	486920	N
22:33	487166	"
22:34	487508	N
22:34	487734	"
22:35	488089	N
22:36	488330	"
22:37	488673	N
22:38	488926	"
22:39	489286	N
22:39	489546	"
22:40	489905	N
22:41	490166	"
22:42	490522	N
22:43	490769	"
22:44	491140	N
22:45	491407	"
22:45	491758	N
22:46	492007	"
22:47	492377	N
22:48	492627	"
22:49	492987	N
22:50	493248	"
22:51	493594	N
22:51	493840	"
22:52	494213	N
22:53	494461	"
22:54	494820	N
22:55	495063	"
22:56	495414	N
22:56	495658	"
22:57	496012	N
22:58	496249	"
22:59	496593	N
23:00	496840	"
23:01	497203	N
23:01	497458	"
23:02	497804	N
23:03	498077	"
23:04	498437	N
23:05	498700	"
23:06	499064	N
23:07	499326	"
23:08	499685	N
23:08	499949	"
23:09	500311	N
23:10	500535	"
23:11	500894	N
23:12	501155	"
23:13	501505	N
23:13	501738	"
23:14	502099	N
23:15	502350	"
23:16	502689	N
23:17	502931	"
23:18	503280	N
23:18	503523	"
23:19	503872	N
23:20	504112	"
23:21	504469	N
23:22	504726	"
23:23	505086	N
23:23	505345	"
23:24	505702	N
23:25	505962	"
23:26	506321	N
23:27	506581	"
23:28	506954	N
23:28	507209	"
23:29	507445	+
23:29	507577	N
23:30	507901	R
23:31	508210	R
23:32	508531	R
23:33	508878	R
23:34	509207	R
23:35	509536	R
23:36	509886	R
23:37	510214	R
23:38	510562	R
23:39	510934	R
23:40	511276	R
23:41	511633	R
23:42	512002	R
23:43	512344	R
23:44	512705	R
23:45	513073	R
23:46	513410	R
23:47	513758	R
23:48	514109	R
23:48	514432	R
23:49	514785	R
23:50	515143	R
23:51	515478	R
23:52	515837	R
23:53	516198	R
23:54	516545	R
23:55	516904	R
23:56	517274	R
23:57	517621	R
23:58	517993	R
23:59	518350	R
24:00	518713	R
24:01	519062	R
24:02	519409	R
24:03	519779	R
24:04	520117	R
24:05	520478	R
24:06	520833	R
24:07	521191	R
24:08	521554	R
24:09	521909	R
24:10	522270	R
24:11	522635	R
24:12	522994	R
24:13	523356	R
24:14	523729	R
24:15	524078	R
24:16	524432	R
24:17	524792	R
24:18	525136	R
24:19	525509	R
24:20	525890	R
24:21	526233	R
24:22	526598	R
24:23	526974	R
24:24	527326	R
24:25	527691	R
24:26	528042	R
24:27	528377	R
24:28	528740	R
24:29	529104	R
24:30	529435	R
24:31	529800	R
24:32	530149	R
24:33	530479	R
24:34	530826	R
24:35	531169	R
24:36	531484	R
24:37	531834	R
24:38	532174	R
24:39	532490	R
24:40	532848	R
24:41	533195	R
24:41	533517	R
24:42	533869	R
24:43	534212	R
24:44	534539	R
24:45	534895	R
24:46	535236	R
24:47	535565	R
24:48	535934	R
24:49	536285	R
24:50	536613	R
24:51	536976	R
24:52	537316	R
24:53	537655	R
24:54	537999	R
24:55	538375	R
24:56	538726	R
24:57	539080	R
24:58	539444	R
24:59	539801	R
25:00	540146	R
25:01	540522	R
25:02	540876	R
25:03	541254	R
25:04	541646	R
25:05	542002	R
25:06	542365	R
25:07	542740	R
25:08	543088	R
25:09	543454	R
25:10	543806	R
25:11	544136	R
25:12	544495	R
25:13	544860	R
25:14	545203	R
25:15	545589	R
25:16	545959	R
25:17	546300	R
25:18	546676	R
25:19	547014	R
25:20	547353	R
25:21	547716	R
25:22	548054	R
25:23	548388	R
25:24	548742	R
25:25	549083	R
25:26	549436	R
25:27	549809	R
25:28	550185	R
25:29	550535	R
25:30	550915	R
25:31	551300	R
25:32	551652	R
25:33	552025	R
25:34	552395	R
25:35	552737	R
25:36	553094	R
25:37	553450	R
25:38	553777	R
25:39	554123	R
25:40	554474	R
25:41	554817	R
25:42	555161	R
25:43	555532	R
25:44	555864	R
25:44	556192	R
25:45	556529	R
25:46	556844	R
25:47	557185	R
25:48	557556	R
25:49	557877	R
25:50	558244	R
25:51	558624	R
25:52	558960	R
25:53	559333	R
25:54	559669	R
25:55	559997	R
25:56	560317	R
25:57	560671	R
25:58	560987	R
25:59	561345	R
26:00	561694	R
26:01	562019	R
26:02	562389	R
26:03	562769	R
26:04	563100	R
26:05	563491	R
26:06	563848	R
26:07	564187	R
26:08	564563	R
26:09	564907	R
26:10	565249	R
26:11	565589	R
26:11	565911	R
26:12	566233	R
26:13	566581	R
26:14	566917	R
26:15	567259	R
26:16	567621	R
26:17	567973	R
26:18	568306	R
26:19	568686	R
26:20	569038	R
26:21	569387	R
26:22	569745	R
26:23	570091	R
26:24	570432	R
26:25	570780	R
26:26	571136	R
26:27	571467	R
26:28	571804	R
26:29	572144	R
26:30	572466	R
26:31	572812	R
26:32	573168	R
26:33	573489	R
26:34	573843	R
26:34	574192	R
26:35	574529	R
26:36	574878	R
26:37	575238	R
26:38	575572	R
26:39	575930	R
26:40	576308	R
26:41	576649	R
26:42	577008	R
26:43	577368	R
26:44	577692	R
26:45	578028	R
26:46	578353	R
26:47	578606	"
26:48	578987	N
26:49	579311	R
26:50	579611	R
26:50	579951	R
26:51	580299	R
26:52	580617	R
26:53	580979	R
26:54	581353	R
26:55	581694	R
26:56	582051	R
26:57	582417	R
26:58	582749	R
26:59	583113	R
27:00	583457	R
27:01	583791	R
27:02	584160	R
27:03	584515	R
27:04	584838	R
27:05	585185	R
27:06	585514	R
27:07	585830	R
27:08	586171	R
27:09	586512	R
27:10	586834	R
27:11	587195	R
27:12	587541	R
27:12	587875	R
27:14	588250	R
27:14	588598	R
27:15	588945	R
27:16	589299	R
27:17	589649	R
27:18	589980	R
27:19	590345	R
27:20	590689	R
27:21	591029	R
27:22	591372	R
27:23	591710	R
27:24	592040	R
27:25	592373	R
27:26	592713	R
27:27	593044	R
27:28	593392	R
27:29	593748	R
27:30	594082	R
27:31	594427	R
27:32	594790	R
27:33	595130	R
27:34	595458	R
27:35	595827	R
27:36	596196	R
27:37	596534	R
27:38	596912	R
27:39	597272	R
27:40	597607	R
27:41	597989	R
27:42	598340	R
27:42	598673	R
27:43	599023	R
27:44	599348	R
27:45	599672	R
27:46	600021	R
27:47	600364	R
27:48	600714	R
27:49	601059	R
27:50	601414	R
27:51	601753	R
27:52	602101	R
27:53	602458	R
27:54	602806	R
27:55	603157	R
27:56	603501	R
27:57	603848	R
27:58	604196	R
27:59	604532	R
28:00	604875	R
28:01	605208	R
28:02	605542	R
28:02	605874	R
28:03	606208	R
28:04	606562	R
28:05	606903	R
28:06	607249	R
28:07	607607	R
28:08	607946	R
28:09	608301	R
28:10	608668	R
28:11	609005	R
28:12	609344	R
28:13	609687	R
28:14	610033	R
28:15	610366	R
28:16	610725	R
28:17	611073	R
28:18	611404	R
28:19	611761	R
28:20	612120	R
28:21	612453	R
28:22	612814	R
28:23	613154	R
28:24	613488	R
28:25	613849	R
28:26	614204	R
28:27	614562	R
28:28	614924	R
28:29	615302	R
28:30	615663	R
28:31	616030	R
28:32	616393	R
28:33	616741	R
28:34	617089	R
28:35	617436	R
28:36	617781	R
28:37	618123	R
28:38	618480	R
28:38	618817	R
28:39	619150	R
28:40	619500	R
28:41	619838	R
28:42	620181	R
28:43	620554	R
28:44	620887	R
28:45	621239	R
28:46	621603	R
28:47	621947	R
28:48	622301	R
28:49	622668	R
28:50	623007	R
28:51	623348	R
28:52	623704	R
28:53	624049	R
28:54	624391	R
28:55	624746	R
28:56	625097	R
28:57	625432	R
28:58	625787	R
28:59	626128	R
29:00	626466	R
29:01	626801	R
29:02	627136	R
29:02	627465	R
29:03	627805	R
29:04	628156	R
29:05	628490	R
29:06	628822	R
29:07	629175	R
29:08	629549	R
29:09	629886	R
29:10	630251	R
29:11	630604	R
29:12	630928	R
29:13	631281	R
29:14	631632	R
29:15	631950	R
29:16	632297	R
29:17	632622	R
29:17	632878	"
29:19	633251	N
29:19	633581	R
29:20	633890	R
29:21	634242	R
29:22	634586	R
29:23	634907	R
29:24	635261	R
29:25	635623	R
29:26	635962	R
29:27	636346	R
29:28	636708	R
29:29	637058	R
29:30	637432	R
29:31	637787	R
29:32	638134	R
29:33	638493	R
29:34	638825	R
29:35	639161	R
29:36	639513	R
29:37	639853	R
29:38	640204	R
29:39	640560	R
29:40	640922	R
29:41	641265	R
29:42	641629	R
29:43	641990	R
29:44	642344	R
29:45	642707	R
29:46	643074	R
29:47	643424	R
29:48	643775	R
29:49	644141	R
29:50	644480	R
29:51	644833	R
29:52	645174	R
29:53	645514	R
29:53	645838	R
29:54	646167	R
29:55	646431	"
29:56	646801	N
29:57	647128	R
29:58	647439	R
29:59	647777	R
30:00	648124	R
30:01	648456	R
30:02	648811	R
30:03	649142	R
30:04	649501	R
30:05	649862	R
