0:01	491	R
0:02	737	A
0:02	1000	A
0:04	1659	R
0:05	1903	A
0:05	2156	A
0:07	2550	~
0:07	2829	R
0:08	3066	A
0:10	3667	R
0:10	3909	A
0:12	4511	R
0:13	4751	A
0:14	5341	R
0:15	5584	A
0:16	5855	A
0:18	6482	R
0:18	6721	A
0:19	6982	A
0:20	7232	A
0:20	7493	A
0:21	7754	A
0:22	8003	A
0:22	8255	A
0:24	8941	R
0:27	9890	R
0:28	10295	R
0:29	10540	A
0:29	10796	A
0:31	11462	R
0:32	11704	A
0:33	11974	A
0:33	12237	A
0:34	12492	A
0:35	12747	A
0:36	13003	A
0:36	13264	A
0:37	13526	A
0:38	13792	A
0:39	14058	A
0:39	14318	A
0:42	15317	R
0:43	15727	R
0:44	15966	A
0:45	16225	A
0:46	16918	R
0:47	17162	A
0:48	17422	A
0:49	17684	A
0:51	18403	R
0:52	18892	R
0:53	19130	A
0:53	19391	A
0:54	19651	A
0:55	19905	A
0:56	20167	A
0:58	21128	R
0:59	21560	R
1:00	21805	A
1:01	22066	A
1:03	22726	R
1:03	22965	A
1:04	23230	A
1:06	23887	R
1:07	24126	A
1:07	24384	A
1:08	24640	A
1:10	25352	R
1:11	25657	~
1:12	26100	R
1:14	26810	R
1:15	27049	A
1:15	27306	A
1:16	27559	A
1:17	27821	A
1:18	28082	A
1:18	28337	A
1:19	28591	A
1:20	28851	A
1:20	29114	A
1:21	29374	A
1:23	30009	R
1:23	30155	~
1:24	30257	A
1:24	30519	A
1:25	30779	A
1:26	31294	R
1:27	31535	A
1:28	31794	A
1:30	32412	~
1:30	32478	R
1:30	32728	A
1:31	32993	A
1:32	33252	A
1:33	33511	A
1:33	33769	A
1:35	34305	R
1:35	34556	A
1:36	34825	A
1:38	35511	R
1:39	35750	A
1:40	36020	A
1:40	36284	A
1:42	36971	R
1:43	37211	A
1:44	37486	A
1:46	38193	R
1:46	38436	A
1:47	38701	A
1:48	38961	A
1:50	39667	R
1:50	39909	A
1:51	40167	A
1:53	40873	R
1:54	41125	A
1:54	41383	A
1:56	42068	R
1:57	42314	A
1:58	42577	A
2:00	43249	R
2:00	43496	A
2:01	43766	A
2:03	44441	R
2:04	44684	A
2:04	44945	A
2:05	45199	A
2:06	45460	A
2:06	45718	A
2:08	46394	R
2:09	46639	A
2:10	46908	A
2:11	47175	A
2:11	47439	A
2:12	47697	A
2:13	47955	A
2:13	48214	A
2:14	48476	A
2:15	48739	A
2:16	49007	A
2:18	49871	R
2:19	50368	R
2:20	50616	A
2:21	50880	A
2:22	51134	A
2:22	51398	A
2:24	52006	R
2:25	52261	A
2:25	52524	A
2:27	53180	R
2:28	53433	A
2:29	53692	A
2:31	54360	R
2:31	54605	A
2:32	54863	A
2:34	55550	R
2:34	55798	A
2:35	56062	A
2:37	56747	R
2:38	56991	A
2:39	57248	A
2:39	57506	A
2:40	57768	A
2:41	58027	A
2:43	58938	R
2:45	59455	R
2:45	59699	A
2:46	59959	A
2:48	60638	R
2:49	60891	A
2:49	61155	A
2:50	61419	A
2:51	61683	A
2:52	61943	A
2:53	62626	R
2:54	62872	A
2:56	63494	R
2:57	63732	A
2:58	64329	R
2:59	64574	A
3:01	65169	R
3:01	65413	A
3:02	65672	A
3:04	66323	R
3:04	66571	A
3:05	66827	A
3:07	67463	R
3:08	67709	A
3:08	67972	A
3:10	68610	R
3:11	68845	A
3:12	69441	R
3:13	69688	A
3:14	69944	A
3:16	70586	R
3:16	70829	A
3:17	71095	A
3:18	71354	A
3:20	72002	R
3:20	72245	A
3:22	72863	R
3:23	73095	A
3:23	73351	A
3:24	73604	A
3:25	73863	A
3:26	74516	R
3:28	75212	R
3:29	75456	A
3:30	75716	A
3:32	76388	R
3:32	76624	A
3:33	76888	A
3:35	77562	R
3:36	77800	A
3:36	78060	A
3:38	78727	R
3:39	78976	A
3:40	79240	A
3:40	79488	A
3:41	79740	A
3:42	79997	A
3:44	80691	R
3:44	80933	A
3:45	81192	A
3:45	81335	~
3:46	81446	A
3:46	81705	A
3:47	81971	A
3:48	82228	A
3:49	82496	A
3:49	82755	A
3:50	83018	A
3:51	83281	A
3:52	83548	A
3:52	83811	A
3:53	84079	A
3:54	84343	A
3:55	84601	A
3:56	85176	R
3:57	85427	A
3:58	85700	A
3:58	85962	A
3:59	86225	A
4:02	87235	R
4:02	87470	~
4:03	87709	R
4:04	87955	A
4:05	88223	A
4:05	88485	A
4:06	88746	A
4:07	88997	A
4:07	89260	A
4:08	89528	A
4:09	89790	A
4:11	90514	R
4:12	90767	A
4:12	91033	A
4:14	91731	R
4:15	91982	A
4:17	92610	R
4:17	92854	A
4:18	93122	A
4:19	93384	A
4:20	93646	A
4:21	94262	R
4:22	94514	A
4:23	94789	A
4:25	95482	R
4:25	95725	A
4:26	95988	A
4:27	96255	A
4:28	96523	A
4:28	96786	A
4:29	96933	~
4:30	97500	R
4:31	97749	A
4:33	98406	R
4:34	98653	A
4:34	98922	A
4:35	99180	A
4:35	99238	~
4:36	99449	A
4:36	99599	~
4:37	100074	R
4:38	100321	A
4:39	100583	A
4:41	101161	~
4:41	101262	R
4:41	101508	A
4:42	101768	A
4:43	102024	A
4:46	102981	R
4:47	103388	R
4:47	103636	A
4:48	103902	A
4:50	104595	R
4:51	104832	A
4:51	105095	A
4:53	105813	R
4:55	106335	R
4:56	106581	A
4:56	106840	A
4:57	107102	A
4:58	107369	A
4:58	107632	A
4:59	107895	A
5:00	108161	A
5:02	108842	R
5:03	109352	R
5:04	109596	A
5:05	109862	A
5:05	110122	A
5:06	110387	A
5:08	111069	R
5:09	111311	A
5:09	111577	A
5:10	111840	A
5:11	112108	A
5:12	112375	A
5:14	113376	R
5:16	113878	R
5:17	114122	A
5:18	114725	R
5:19	114962	A
5:20	115225	A
5:20	115486	A
5:21	115745	A
5:22	115999	A
5:22	116257	A
5:23	116517	A
5:24	116787	A
5:26	117455	R
5:26	117698	A
5:28	118330	R
5:29	118580	A
5:30	118849	A
5:31	119501	R
5:32	119744	A
5:33	120013	A
5:34	120266	A
5:34	120532	A
5:35	120790	A
5:37	121455	R
5:38	121702	A
5:38	121970	A
5:39	122229	A
5:39	122278	~
5:39	122389	~
5:40	122495	A
5:41	123090	R
5:42	123331	A
5:43	123590	A
5:44	123846	A
5:44	124104	A
5:46	124681	R
5:47	124923	A
5:47	125189	A
5:48	125443	A
5:49	125704	A
5:49	125861	~
5:51	126413	R
5:51	126661	A
5:52	126925	A
5:54	127625	R
5:57	128547	R
5:58	129047	R
5:59	129294	A
5:59	129431	~
5:59	129567	A
6:00	129830	A
6:01	130096	A
6:02	130352	A
6:02	130614	A
6:03	130880	A
6:06	131874	R
6:07	132336	R
6:08	132583	A
6:09	132850	A
6:09	133108	A
6:10	133367	A
6:12	133968	R
6:12	134217	A
6:13	134385	~
6:13	134488	A
6:15	135169	R
6:16	135413	A
6:16	135681	A
6:17	135950	A
6:18	136208	A
6:19	136466	A
6:19	136600	~
6:19	136725	A
6:22	137697	R
6:23	137954	~
6:23	138177	R
6:24	138420	A
6:25	138684	A
6:25	138950	A
6:26	139213	A
6:27	139475	A
6:28	139729	A
6:28	139864	~
6:29	140271	~
6:29	140311	R
6:30	140558	A
6:31	140827	A
6:31	141098	A
6:32	141231	~
6:32	141362	A
6:33	141623	A
6:34	141887	A
6:34	142158	A
6:37	143183	R
6:38	143592	R
6:39	143844	A
6:40	144108	A
6:41	144368	A
6:42	145059	R
6:43	145310	A
6:44	145579	A
6:46	146231	R
6:46	146472	A
6:47	146735	A
6:48	147003	A
6:49	147278	A
6:49	147329	~
6:49	147539	A
6:50	147803	A
6:51	148063	A
6:51	148235	~
6:52	148330	A
6:52	148601	A
6:53	148866	A
6:55	149556	R
6:56	149802	A
6:56	150066	A
6:58	150783	R
6:59	151028	A
7:00	151293	A
7:01	151563	A
7:01	151833	A
7:02	152095	A
7:05	153029	R
7:06	153472	R
7:07	153722	A
7:07	153982	A
7:09	154652	R
7:10	154908	A
7:11	155175	A
7:11	155435	A
7:12	155697	A
7:14	156364	R
7:15	156613	A
7:15	156883	A
7:17	157545	R
7:18	157788	A
7:19	158055	A
7:19	158317	A
7:20	158579	A
7:21	158839	A
7:21	159099	A
7:23	159632	R
7:24	159884	A
7:24	160156	A
7:25	160419	A
7:26	160679	A
7:27	160944	A
7:29	161692	R
7:29	161931	A
7:30	162197	A
7:31	162461	A
7:32	162725	A
7:33	163357	R
7:34	163607	A
7:35	163868	A
7:35	164133	A
7:36	164408	A
7:37	164673	A
7:38	164939	A
7:39	165583	R
7:40	165827	A
7:41	166102	A
7:42	166369	A
7:44	167348	R
7:46	167828	R
7:46	168079	A
7:47	168339	A
7:49	169003	R
7:50	169256	A
7:50	169531	A
7:52	170193	R
7:53	170442	A
7:54	170713	A
7:54	170972	A
7:56	171589	R
7:57	171832	A
7:58	172096	A
7:58	172359	A
8:00	173083	R
8:01	173328	A
8:02	173596	A
8:02	173866	A
8:03	174132	A
8:04	174391	A
8:06	175093	R
8:07	175328	A
8:07	175597	A
8:08	175860	A
8:09	176122	A
8:09	176385	A
8:10	176642	A
8:12	177302	R
8:13	177544	A
8:13	177795	A
8:15	178451	R
8:16	178697	A
8:17	178964	A
8:17	179217	A
8:18	179476	A
8:19	179728	A
8:19	179990	A
8:20	180255	A
8:21	180516	A
8:23	181221	R
8:24	181469	A
8:24	181726	A
8:25	181988	A
8:26	182261	A
8:27	182520	A
8:27	182780	A
8:28	183041	A
8:30	183636	R
8:30	183887	A
8:31	184152	A
8:32	184412	A
8:32	184678	A
8:34	185329	R
8:35	185573	A
8:36	185843	A
8:38	186551	R
8:38	186796	A
8:40	187435	R
8:41	187688	A
8:42	187950	A
8:42	188213	A
8:43	188481	A
8:44	188743	A
8:45	189005	A
8:46	189552	R
8:47	189802	A
8:47	190073	A
8:49	190751	R
8:50	190998	A
8:52	191614	R
8:52	191863	A
8:53	192128	A
8:54	192381	A
8:55	192644	A
8:55	192912	A
8:56	193171	A
8:58	193704	R
8:58	193945	A
8:59	194210	A
9:01	194875	R
9:02	195122	A
9:02	195390	A
9:04	196094	R
9:05	196344	A
9:06	196609	A
9:06	196870	A
9:07	197131	A
9:09	197773	R
9:10	198031	A
9:10	198298	A
9:11	198562	A
9:12	198826	A
9:14	199488	R
9:14	199742	A
9:15	200005	A
9:16	200265	A
9:17	200806	R
9:18	201050	A
9:19	201319	A
9:19	201584	A
9:20	201843	A
9:21	202107	A
9:23	202878	R
9:24	203124	A
9:24	203395	A
9:25	203664	A
9:26	203931	A
9:27	204197	A
9:29	204906	R
9:29	205150	A
9:30	205423	A
9:32	206132	R
9:33	206383	A
9:34	206650	A
9:34	206911	A
9:35	207177	A
9:37	207851	R
9:38	208100	R
9:38	208371	A
9:39	208637	A
9:41	209198	R
9:41	209438	A
9:42	209710	A
9:43	209975	A
9:45	210664	R
9:45	210913	A
9:46	211183	A
9:47	211439	A
9:48	211707	A
9:48	211978	A
9:49	212245	A
9:50	212517	A
9:51	212788	A
9:51	213060	A
9:52	213329	A
9:54	214056	R
9:55	214307	A
9:56	214578	A
9:56	214847	A
9:57	215127	A
9:59	215791	R
10:00	216051	A
10:00	216331	A
10:01	216597	A
10:03	217164	R
10:03	217411	A
10:04	217684	A
10:05	217954	A
10:06	218227	A
10:07	218782	R
10:08	219026	A
10:09	219303	A
10:09	219573	A
10:10	219846	A
10:12	220528	R
10:13	220783	A
10:14	221058	A
10:14	221331	A
10:16	221900	R
10:17	222147	A
10:17	222421	A
10:18	222694	A
10:19	222963	A
10:20	223234	A
10:20	223512	A
10:22	224261	R
10:23	224522	A
10:24	224798	A
10:26	225486	R
10:27	225739	A
10:27	226007	A
10:29	226697	R
10:30	226941	A
10:31	227202	A
10:33	227885	R
10:33	228131	A
10:34	228397	A
10:35	228657	A
10:35	228928	A
10:38	230038	R
10:40	230540	R
10:41	230800	A
10:41	231076	A
10:42	231348	A
10:43	231613	A
10:44	231885	A
10:44	232159	A
10:45	232430	A
10:48	233542	R
10:50	234031	R
10:50	234285	A
10:51	234557	A
10:53	235243	R
10:54	235490	A
10:54	235765	A
10:55	236037	A
10:56	236301	A
10:58	236936	R
10:58	237196	A
10:59	237473	A
11:00	237741	A
11:01	238277	R
11:02	238528	A
11:03	238803	A
11:04	239074	A
11:04	239342	A
11:06	239994	R
11:07	240250	A
11:08	240527	A
11:08	240791	A
11:09	241054	A
11:11	241693	R
11:12	241953	A
11:12	242230	A
11:13	242499	A
11:14	242770	A
11:15	243036	A
11:15	243307	A
11:16	243583	A
11:17	243896	~
11:18	244261	R
11:19	244508	A
11:19	244782	A
11:20	245040	A
11:21	245308	A
11:22	245572	A
11:22	245833	A
11:23	246099	A
11:24	246360	A
11:25	246638	A
11:25	246898	A
11:26	247177	A
11:27	247420	A
11:28	247683	A
11:28	247947	A
11:29	248205	A
11:30	248465	A
11:30	248729	A
11:31	248905	~
11:31	248981	A
11:32	249236	A
11:33	249498	A
11:33	249773	A
11:34	250045	A
11:35	250309	A
11:36	250569	A
11:36	250831	A
11:37	251099	A
11:38	251362	A
11:38	251628	A
11:39	251901	A
11:40	252171	A
11:41	252439	A
11:41	252568	~
11:41	252707	A
11:42	252983	A
11:43	253255	A
11:44	253526	A
11:44	253793	A
11:46	254383	R
11:46	254492	~
11:47	254631	A
11:48	255200	R
11:49	255447	A
11:50	255715	A
11:51	255980	A
11:51	256132	~
11:51	256253	A
11:52	256515	A
11:53	256782	A
11:55	257419	R
11:55	257659	A
11:56	257930	A
11:57	258198	A
11:57	258461	A
11:58	258731	A
11:59	258994	A
12:00	259265	A
12:00	259543	A
12:01	259812	A
12:02	260082	A
12:03	260348	A
12:03	260623	A
12:05	261270	R
12:06	261514	A
12:07	261777	A
12:08	262418	R
12:09	262675	A
12:10	262943	A
12:11	263203	A
12:12	263860	R
12:13	263913	~
12:13	264100	A
12:14	264367	A
12:15	264636	A
12:15	264898	A
12:16	265164	A
12:17	265429	A
12:19	266080	R
12:19	266327	A
12:20	266594	A
12:22	267216	R
12:22	267466	A
12:24	268107	R
12:25	268355	A
12:25	268556	~
12:26	268623	A
12:28	269283	R
12:28	269525	A
12:29	269787	A
12:31	270451	R
12:31	270699	A
12:32	270972	A
12:33	271228	A
12:34	271487	A
12:36	272198	R
12:36	272440	A
12:37	272703	A
12:38	272962	A
12:38	273221	A
12:39	273481	A
12:40	273748	A
12:41	274019	A
12:41	274279	A
12:43	274964	R
12:44	275217	A
12:45	275486	A
12:47	276145	R
12:47	276396	A
12:48	276660	A
12:49	276927	A
12:51	277700	R
12:52	277946	A
12:52	278215	A
12:54	278866	R
12:55	279104	A
12:56	279371	A
12:57	280031	R
12:58	280279	A
12:59	280547	A
13:01	281224	R
13:01	281474	A
13:02	281747	A
13:03	282013	A
13:05	282696	R
13:05	282941	A
13:06	283212	A
13:08	283870	R
13:09	284112	A
13:09	284371	A
13:11	285051	R
13:12	285296	A
13:13	285562	A
13:15	286230	R
13:15	286478	A
13:16	286746	A
13:17	287003	A
13:17	287260	A
13:18	287520	A
13:19	287788	A
13:20	288058	A
13:20	288325	A
13:21	288585	A
13:22	288851	A
13:23	289122	A
13:23	289389	A
13:24	289656	A
13:25	289932	A
13:27	290615	R
13:27	290869	A
13:28	291147	A
13:29	291413	A
13:30	291679	A
13:32	292350	R
13:32	292600	A
13:33	292872	A
13:35	293603	R
13:36	293849	A
13:37	294126	A
13:39	294840	R
13:39	295090	A
13:40	295362	A
13:42	296051	R
13:43	296298	A
13:43	296565	A
13:45	297243	R
13:46	297501	A
13:47	297769	A
13:47	298028	A
13:50	298840	R
13:50	299087	A
13:51	299360	A
13:53	300042	R
13:54	300287	A
13:54	300560	A
13:56	301235	R
13:57	301481	A
13:58	301744	A
13:58	302001	A
14:00	302652	R
14:01	302900	A
14:02	303166	A
14:03	303838	R
14:04	304080	A
14:05	304345	A
14:07	305051	R
14:08	305295	A
14:08	305562	A
14:09	305827	A
14:10	306088	A
14:12	306746	R
14:12	306995	A
14:13	307267	A
14:14	307531	A
14:14	307793	A
14:15	308059	A
14:16	308320	A
14:17	308590	A
14:18	309091	R
14:19	309334	A
14:19	309599	A
14:21	310276	R
14:22	310528	A
14:24	311193	R
14:25	311440	A
14:25	311713	A
14:27	312411	R
14:28	312656	A
14:29	312921	A
14:29	313190	A
14:30	313455	A
14:31	313719	A
14:32	313975	A
14:34	314706	R
14:36	315684	R
14:38	316084	R
14:38	316208	~
14:38	316342	A
14:39	316551	A
14:40	316852	A
14:40	316968	~
14:40	317105	A
14:41	317364	A
14:43	318060	R
14:44	318307	A
14:44	318568	A
14:45	318826	A
14:48	319722	R
14:49	320210	R
14:50	320460	A
14:50	320727	A
14:51	320985	A
14:52	321251	A
14:53	321521	A
14:53	321784	A
14:54	322049	A
14:55	322309	A
14:56	322580	A
14:59	323717	R
15:00	324161	R
15:01	324418	A
15:01	324692	A
15:02	324954	A
15:03	325217	A
15:04	325481	A
15:04	325750	A
15:06	326380	R
15:07	326620	A
15:08	326888	A
15:09	327584	R
15:10	327841	A
15:11	328110	A
15:12	328375	A
15:14	329343	R
15:16	329863	R
15:16	330111	A
15:17	330378	A
15:18	330643	A
15:19	330906	A
15:19	331170	A
15:20	331433	A
15:22	332112	R
15:23	332362	A
15:23	332630	A
15:25	333321	R
15:26	333565	A
15:27	333834	A
15:28	334103	A
15:28	334363	A
15:29	334628	A
15:31	335292	R
15:32	335547	A
15:32	335821	A
15:33	336083	A
15:34	336346	A
15:35	336617	A
15:35	336883	A
15:37	337470	R
15:38	337715	A
15:38	337981	A
15:39	338248	A
15:42	339212	R
15:43	339630	R
15:44	339882	A
15:44	340151	A
15:46	340847	R
15:47	341091	A
15:48	341358	A
15:48	341632	A
15:49	341904	A
15:50	342170	A
15:51	342433	A
15:51	342699	A
15:52	342970	A
15:56	344483	R
15:58	344941	R
15:58	345188	A
15:59	345456	A
16:00	345718	A
16:01	345983	A
16:01	346249	A
16:02	346520	A
16:03	346792	A
16:06	347906	R
16:07	348357	R
16:08	348608	A
16:09	348870	A
16:11	349575	R
16:11	349825	A
16:12	350096	A
16:13	350361	A
16:13	350630	A
16:14	350902	A
16:15	351176	A
16:16	351447	A
16:16	351715	A
16:19	352500	R
16:23	353976	R
16:24	354423	R
16:25	354675	A
16:25	354938	A
16:26	355198	A
16:27	355467	A
16:28	355730	A
16:28	355997	A
16:29	356266	A
16:30	356534	A
16:31	356799	A
16:31	357060	A
16:35	358242	R
16:36	358690	R
16:37	358938	A
16:37	359208	A
16:39	359864	R
16:40	360106	A
16:41	360371	A
16:41	360639	A
16:42	360902	A
16:43	361165	A
16:43	361425	A
16:45	362058	R
16:46	362309	A
16:47	362578	A
16:47	362847	A
16:48	363117	A
16:50	363877	R
16:52	364404	R
16:52	364647	A
16:53	364919	A
16:54	365183	A
16:55	365447	A
16:55	365716	A
16:56	365983	A
16:59	367024	R
17:00	367436	R
17:01	367690	A
17:02	367957	A
17:02	368227	A
17:03	368491	A
17:04	368760	A
17:05	369034	A
17:05	369298	A
17:08	370164	R
17:10	371137	R
17:12	371596	R
17:12	371851	A
17:13	372125	A
17:14	372385	A
17:15	372651	A
17:15	372912	A
17:16	373180	A
17:18	373717	R
17:18	373961	A
17:19	374227	A
17:21	374880	R
17:22	375132	A
17:22	375405	A
17:23	375665	A
17:25	376348	R
17:26	376602	A
17:26	376874	A
17:27	377137	A
17:28	377402	A
17:29	377672	A
17:29	377934	A
17:30	378206	A
17:31	378481	A
17:37	380595	R
17:38	381024	R
17:39	381283	A
17:39	381559	A
17:40	381821	A
17:41	382088	A
17:42	382348	A
17:42	382620	A
17:43	382896	A
17:44	383161	A
17:45	383426	A
17:45	383694	A
17:46	383963	A
17:49	384959	R
17:50	385498	R
17:51	385753	A
17:52	386026	A
17:53	386293	A
17:53	386560	A
17:54	386819	A
17:55	387080	A
17:55	387347	A
17:56	387619	A
17:58	388337	R
18:00	388849	R
18:00	389102	A
18:01	389372	A
18:02	389640	A
18:04	390342	R
18:04	390588	A
18:05	390858	A
18:07	391545	R
18:08	391794	A
18:09	392065	A
18:09	392337	A
18:10	392602	A
18:11	392869	A
18:12	393136	A
18:14	394055	R
18:17	395011	R
18:18	395429	R
18:19	395682	A
18:19	395948	A
18:20	396206	A
18:21	396468	A
18:25	398056	R
18:26	398494	R
18:27	398759	A
18:28	399025	A
18:29	399290	A
18:29	399555	A
18:30	399820	A
18:31	400078	A
18:32	400351	A
18:32	400620	A
18:33	400888	A
18:35	401679	R
18:38	402682	R
18:39	403124	R
18:40	403372	A
18:41	403640	A
18:41	403904	A
18:42	404164	A
18:43	404422	A
18:44	404687	A
18:44	404956	A
18:45	405222	A
18:47	405899	R
18:48	406148	A
18:48	406408	A
18:49	406674	A
18:50	406947	A
18:51	407209	A
18:54	408462	R
18:55	408953	R
18:56	409197	A
18:57	409461	A
18:58	409724	A
18:58	409986	A
18:59	410245	A
19:00	410509	A
19:01	410768	A
19:01	411029	A
19:02	411300	A
19:03	411564	A
19:03	411831	A
19:06	412809	R
19:08	413535	R
19:09	413784	A
19:10	414048	A
19:10	414316	A
19:11	414585	A
19:12	414852	A
19:13	415115	A
19:13	415381	A
19:15	416130	R
19:19	417576	R
19:21	418009	R
19:21	418255	A
19:22	418523	A
19:23	418790	A
19:24	419053	A
19:24	419322	A
19:25	419596	A
19:26	419864	A
19:27	420136	A
19:27	420405	A
19:28	420679	A
19:29	420955	A
19:32	421952	R
19:33	422393	R
19:34	422652	A
19:34	422924	A
19:35	423188	A
19:36	423451	A
19:37	423723	A
19:37	424003	A
19:38	424275	A
19:39	424544	A
19:42	425617	R
19:43	426051	R
19:44	426304	A
19:44	426567	A
19:45	426835	A
19:46	427111	A
19:47	427375	A
19:47	427643	A
19:51	428804	R
19:52	429258	R
19:53	429510	A
19:53	429771	A
19:54	430043	A
19:55	430319	A
19:56	430586	A
19:56	430852	A
19:57	431123	A
19:58	431390	A
19:59	431658	A
20:02	432788	R
20:03	433365	R
20:04	433617	A
20:05	433895	A
20:05	434154	A
20:06	434422	A
20:07	434692	A
20:08	434960	A
20:08	435232	A
20:09	435509	A
20:10	435778	A
20:13	436858	R
20:15	437400	R
20:15	437648	A
20:16	437921	A
20:17	438192	A
20:17	438460	A
20:18	438728	A
20:19	438997	A
20:20	439261	A
20:20	439530	A
20:21	439812	A
20:22	440080	A
20:24	440716	R
20:24	440974	A
20:25	441239	A
20:27	441913	R
20:28	442163	A
20:28	442427	A
20:29	442693	A
20:30	442969	A
20:31	443234	A
20:31	443506	A
20:32	443779	A
20:34	444533	R
20:38	446025	R
20:39	446331	A
20:40	446513	A
20:40	446678	A
20:41	446882	A
20:41	447109	A
20:42	447374	A
20:43	447598	A
20:43	447831	A
20:44	448076	A
20:46	448848	R
20:47	449256	R
20:48	449505	A
20:49	449776	A
20:50	450038	A
20:50	450302	A
20:56	452324	j
20:57	452796	R
20:58	453045	A
20:59	453306	A
20:59	453572	A
21:00	453829	A
21:01	454098	A
21:02	454370	A
21:02	454630	A
21:03	454891	A
21:04	455152	A
21:05	455420	A
21:07	456353	R
21:08	456790	R
21:09	457033	A
21:10	457302	A
21:11	457564	A
21:11	457822	A
21:12	458086	A
21:13	458349	A
21:13	458621	A
21:14	458892	A
21:15	459161	A
21:16	459425	A
21:19	460545	R
21:21	461368	R
21:24	462304	R
21:26	463206	R
21:28	463737	R
21:28	463979	A
21:29	464242	A
21:30	464491	A
21:30	464748	A
21:31	465009	A
21:32	465270	A
21:33	465530	A
21:33	465790	A
21:38	467366	R
21:39	467784	R
21:40	468038	A
21:40	468306	A
21:41	468568	A
21:42	468818	A
21:42	469075	A
21:43	469334	A
21:44	469588	A
21:45	469850	A
21:45	470116	A
21:46	470376	A
21:48	471075	R
21:50	471623	R
21:50	471871	A
21:51	472134	A
21:52	472396	A
21:52	472661	A
21:53	472928	A
21:54	473192	A
21:58	474686	R
21:59	475087	R
22:00	475334	A
22:01	475595	A
22:01	475852	A
22:02	476116	A
22:03	476376	A
22:03	476637	A
22:04	476897	A
22:05	477155	A
22:06	477419	A
22:06	477691	A
22:07	477950	A
22:08	478218	A
22:09	478480	A
22:12	479736	~
22:13	480081	R
22:14	480435	~
22:14	480482	R
22:15	480734	A
22:16	481004	A
22:16	481270	A
22:17	481527	A
22:18	481784	A
22:19	482046	A
22:19	482303	A
22:20	482565	A
22:22	483278	R
22:23	483704	~
22:23	483807	R
22:24	484057	A
22:26	484702	R
22:27	484956	A
22:27	485026	~
22:27	485227	A
22:29	485907	R
22:30	486151	A
22:31	486420	A
22:31	486678	A
22:32	486941	A
22:33	487219	A
22:34	487481	A
22:34	487747	A
22:36	488511	R
22:41	490008	R
22:42	490453	R
22:43	490699	A
22:43	490956	A
22:44	491211	A
22:45	491478	A
22:45	491739	A
22:46	492005	A
22:47	492277	A
22:48	492539	A
22:48	492801	A
22:51	493858	R
22:54	494765	R
22:56	495663	R
22:58	496167	R
22:58	496417	A
22:59	496687	A
23:00	496947	A
23:01	497207	A
23:01	497469	A
23:02	497728	A
23:03	497985	A
23:04	498252	A
23:04	498518	A
23:05	498781	A
23:07	499473	R
23:10	500401	R
23:11	500924	R
23:12	501166	A
23:12	501433	A
23:13	501703	A
23:14	501961	A
23:15	502219	A
23:15	502475	A
23:16	502740	A
23:17	503008	A
23:17	503269	A
23:18	503531	A
23:19	503791	A
23:20	504055	A
23:20	504315	A
23:21	504581	A
23:22	504850	A
23:24	505712	R
23:28	507151	R
23:29	507561	R
23:30	507813	A
23:31	508079	A
23:32	508336	A
23:32	508596	A
23:33	508859	A
23:34	509121	A
23:34	509385	A
23:35	509653	A
23:36	509912	A
23:37	510176	A
23:37	510445	A
23:43	512495	R
23:44	512918	R
23:45	513164	A
23:46	513423	A
23:46	513681	A
23:47	513942	A
23:48	514203	A
23:49	514469	A
23:49	514736	A
23:50	514994	A
23:53	516048	R
23:55	516886	R
23:58	517810	R
24:00	518716	R
24:03	519616	R
24:04	520122	R
24:05	520368	A
24:06	520632	A
24:06	520893	A
24:07	521150	A
24:08	521404	A
24:09	521663	A
24:09	521926	A
24:10	522181	A
24:11	522439	A
24:11	522693	A
24:12	522946	A
24:14	523647	R
24:15	524153	R
24:16	524400	A
24:17	524664	A
24:18	524926	A
24:18	525194	A
24:19	525452	A
24:20	525710	A
24:21	525970	A
24:21	526238	A
24:22	526497	A
24:23	526765	A
24:23	527036	A
24:24	527295	A
24:26	528058	R
24:28	528577	R
24:28	528818	A
24:29	529084	A
24:30	529345	A
24:31	529600	A
24:31	529864	A
24:32	530129	A
24:33	530389	A
24:34	530648	A
24:34	530909	A
24:35	531177	A
24:36	531446	A
24:36	531716	A
24:38	532341	R
24:39	532592	A
24:40	532867	A
24:40	533133	A
24:41	533406	A
24:45	534956	R
24:47	535400	R
24:47	535655	A
24:48	535920	A
24:49	536191	A
24:50	536464	A
24:50	536727	A
24:51	536989	A
24:52	537252	A
24:53	537530	A
24:53	537802	A
24:54	538070	A
24:57	539172	R
24:58	539605	R
24:59	539852	A
25:00	540121	A
25:01	540385	A
25:01	540657	A
25:02	540931	A
25:03	541192	A
25:06	542179	R
25:07	542750	R
25:08	542992	A
25:09	543255	A
25:09	543510	A
25:10	543775	A
25:11	544043	A
25:11	544305	A
25:12	544568	A
25:13	544841	A
25:14	545114	A
25:16	545850	R
25:18	546837	R
25:20	547323	R
25:21	547574	A
25:21	547836	A
25:22	548102	A
25:23	548370	A
25:23	548638	A
25:24	548906	A
25:25	549177	A
25:26	549445	A
25:26	549708	A
25:27	549978	A
25:28	550255	A
25:29	550524	A
25:29	550797	A
25:33	551945	R
25:34	552401	R
25:35	552653	A
25:35	552917	A
25:36	553183	A
25:37	553457	A
25:38	553719	A
25:38	553981	A
25:39	554242	A
25:40	554511	A
25:41	554774	A
25:41	555051	A
25:44	556003	R
25:45	556534	R
25:46	556791	A
25:47	557065	A
25:48	557326	A
25:48	557594	A
25:49	557866	A
25:50	558136	A
25:51	558410	A
25:51	558681	A
25:52	558948	A
25:53	559212	A
25:54	559481	A
25:54	559761	A
25:57	560859	R
25:59	561305	R
25:59	561559	A
26:00	561832	A
26:01	562105	A
26:02	562369	A
26:02	562640	A
26:03	562918	A
26:04	563184	A
26:05	563458	A
26:05	563730	A
26:06	564003	A
26:07	564271	A
26:09	564969	R
26:10	565474	R
26:11	565724	A
26:12	566005	A
26:12	566277	A
26:13	566553	A
26:14	566819	A
26:15	567088	A
26:16	567362	A
26:16	567637	A
26:17	567919	A
26:18	568198	A
26:19	568476	A
26:19	568750	A
26:20	569035	A
26:23	569923	R
26:24	570474	R
26:25	570731	A
26:26	571009	A
26:26	571284	A
26:27	571559	A
26:28	571828	A
26:29	572105	A
26:32	573382	R
26:34	573986	R
26:35	574239	A
26:35	574513	A
26:36	574784	A
26:37	575052	A
26:38	575324	A
26:38	575606	A
26:39	575876	A
26:40	576145	A
26:41	576417	A
26:44	577530	R
26:45	577977	R
26:46	578229	A
26:46	578510	A
26:47	578788	A
26:48	579060	A
26:49	579332	A
26:50	579601	A
26:50	579877	A
26:51	580147	A
26:52	580428	A
26:53	580708	A
26:53	580978	A
26:56	581945	R
26:57	582338	R
26:58	582588	A
26:59	582857	A
26:59	583126	A
27:00	583397	A
27:01	583669	A
27:02	583944	A
27:04	584646	R
27:06	585651	R
27:07	586067	R
27:08	586317	A
27:09	586589	A
27:10	586852	A
27:10	587114	A
27:11	587377	A
27:12	587636	A
27:14	588442	R
27:15	588941	R
27:16	589191	A
27:17	589463	A
27:18	589734	A
27:18	590008	A
27:19	590272	A
27:20	590544	A
27:21	590813	A
27:21	591091	A
27:22	591371	A
27:23	591642	A
27:25	592521	R
27:27	593066	R
27:28	593325	A
27:28	593597	A
27:29	593861	A
27:30	594133	A
27:31	594411	A
27:31	594682	A
27:32	594953	A
27:33	595218	A
27:34	595484	A
27:34	595758	A
27:35	596035	A
27:38	597198	R
27:41	598164	R
27:43	598703	R
27:43	598949	A
27:44	599220	A
27:45	599489	A
27:45	599751	A
27:46	600020	A
27:47	600279	A
27:48	600549	A
27:48	600824	A
27:49	601091	A
27:50	601354	A
27:51	601619	A
27:51	601890	A
27:52	602155	A
27:55	603036	R
27:56	603520	R
27:57	603772	A
27:57	604044	A
27:58	604310	A
27:59	604571	A
28:00	604835	A
28:00	605105	A
28:02	605780	R
28:05	606711	R
28:06	607163	R
28:07	607412	A
28:07	607672	A
28:08	607932	A
28:09	608195	A
28:10	608453	A
28:10	608719	A
28:11	608981	A
28:12	609243	A
28:13	609507	A
28:13	609766	A
28:14	610037	A
28:16	610677	R
28:17	610924	A
28:17	611202	A
28:18	611477	A
28:19	611750	A
28:23	613352	R
28:24	613782	R
28:25	614039	A
28:26	614335	A
28:27	614619	A
28:29	615344	R
28:31	616249	R
28:34	617119	R
28:36	617963	R
28:38	618801	R
28:41	619634	R
28:41	619880	A
28:42	620136	A
28:43	620382	A
28:43	620636	A
28:44	620894	A
28:45	621145	A
28:46	621408	A
28:46	621672	A
28:47	621924	A
28:48	622184	A
28:49	622441	A
28:49	622709	A
28:50	622977	A
28:51	623241	A
28:53	623886	R
28:54	624380	R
28:55	624628	A
28:55	624901	A
28:56	625157	A
28:57	625414	A
28:58	625680	A
28:58	625952	A
28:59	626214	A
29:00	626481	A
29:00	626748	A
29:01	627012	A
29:02	627277	A
29:03	627542	A
29:03	627811	A
29:04	628079	A
29:05	628345	A
29:07	629048	R
29:09	629972	R
29:11	630475	R
29:12	630724	A
29:12	630989	A
29:13	631248	A
29:14	631507	A
29:14	631765	A
29:15	632024	A
29:16	632297	A
29:17	632569	A
29:17	632838	A
29:19	633564	R
29:22	634619	R
29:24	635055	R
29:24	635311	A
29:25	635585	A
29:26	635850	A
29:26	636112	A
29:27	636373	A
29:28	636643	A
29:29	636914	A
29:29	637182	A
29:30	637453	A
29:31	637724	A
29:32	637991	A
29:34	638940	R
29:36	639444	R
29:36	639702	A
29:37	639974	A
29:38	640243	A
29:39	640515	A
29:39	640781	A
29:40	641049	A
29:41	641315	A
29:42	641589	A
29:42	641869	A
29:43	642141	A
29:46	643260	R
29:48	643833	R
29:49	644084	A
29:49	644350	A
29:50	644622	A
29:51	644895	A
29:52	645170	A
29:52	645442	A
29:53	645709	A
29:54	645975	A
29:55	646243	A
29:55	646518	A
29:57	647159	R
29:58	647410	A
29:59	647680	A
29:59	647955	A
30:00	648228	A
30:02	648845	R
30:03	649097	A
30:03	649366	A
