0:00	42	V
0:00	320	N
0:01	511	V
0:02	749	N
0:02	964	N
0:03	1107	V
0:03	1383	N
0:04	1574	V
0:05	1819	N
0:05	2035	N
0:06	2173	V
0:06	2449	N
0:07	2671	N
0:08	2884	N
0:08	3013	V
0:09	3307	N
0:09	3521	N
0:10	3729	N
0:10	3943	N
0:11	4160	N
0:12	4375	N
0:12	4521	V
0:13	4796	N
0:13	4954	V
0:14	5218	N
0:15	5439	N
0:15	5582	A
0:16	5765	V
0:16	6044	N
0:17	6253	N
0:17	6464	N
0:18	6680	N
0:19	6891	N
0:19	7100	N
0:20	7310	N
0:20	7475	A
0:21	7710	N
0:22	7925	N
0:22	8071	V
0:23	8346	N
0:23	8557	N
0:24	8766	N
0:24	8917	V
0:25	9190	N
0:26	9400	N
0:26	9604	N
0:27	9813	N
0:27	9923	+
0:27	9983	V
0:28	10223	V
0:28	10354	V
0:29	10577	+
0:29	10648	N
0:30	10829	V
0:30	11057	N
0:31	11268	N
0:31	11415	V
0:32	11692	N
0:33	11882	V
0:33	12107	N
0:34	12314	N
0:34	12462	V
0:35	12735	N
0:35	12931	V
0:36	13155	N
0:37	13363	N
0:37	13564	N
0:38	13742	V
0:38	13980	N
0:39	14186	N
0:39	14332	V
0:40	14591	N
0:41	14790	V
0:41	14999	N
0:42	15205	N
0:42	15412	N
0:43	15598	V
0:43	15717	V
0:44	16022	N
0:44	16169	V
0:45	16442	N
0:46	16647	N
0:46	16851	N
0:47	17052	N
0:47	17255	N
0:48	17397	V
0:49	17665	N
0:49	17874	N
0:50	18076	N
0:50	18221	V
0:51	18479	N
0:51	18686	N
0:52	18896	N
0:53	19099	N
0:53	19303	N
0:54	19443	V
0:54	19706	N
0:55	19910	N
0:55	20119	N
0:56	20290	V
0:57	20525	N
0:57	20732	N
0:57	20873	V
0:58	21140	N
0:59	21351	N
0:59	21555	N
1:00	21762	N
1:01	21965	N
1:01	22170	N
1:01	22304	V
1:02	22579	N
1:03	22769	V
1:03	22991	N
1:04	23196	N
1:04	23333	V
1:05	23602	N
1:05	23754	V
1:06	24014	N
1:07	24219	N
1:07	24425	N
1:08	24632	N
1:08	24832	N
1:09	24994	V
1:10	25248	N
1:10	25453	N
1:11	25596	V
1:11	25856	N
1:12	26050	V
1:13	26280	N
1:13	26488	N
1:13	26632	V
1:14	26896	N
1:15	27103	N
1:15	27308	N
1:16	27462	V
1:17	27728	N
1:17	27934	N
1:18	28134	N
1:18	28214	+
1:18	28295	V
1:19	28543	N
1:19	28755	N
1:20	28900	V
1:20	29156	N
1:21	29317	N
1:21	29430	V
1:22	29581	+
1:22	29733	N
1:23	29944	N
1:23	30152	N
1:24	30357	N
1:24	30560	N
1:25	30761	N
1:26	30967	N
1:26	31178	N
1:27	31380	N
1:27	31582	N
1:28	31783	N
1:28	31909	V
1:29	32186	N
1:29	32389	N
1:30	32588	N
1:31	32791	N
1:31	32991	N
1:32	33120	V
1:32	33388	N
1:33	33596	N
1:33	33796	N
1:34	33937	V
1:34	34195	N
1:35	34394	N
1:36	34598	N
1:36	34801	N
1:37	35003	N
1:37	35145	V
1:38	35406	N
1:38	35605	N
1:39	35805	N
1:40	36008	N
1:40	36211	N
1:41	36412	N
1:41	36605	N
1:42	36740	V
1:42	37004	N
1:43	37203	N
1:43	37402	N
1:44	37606	N
1:45	37800	N
1:45	37999	N
1:46	38196	N
1:46	38398	N
1:47	38601	N
1:47	38803	N
1:48	39003	N
1:48	39204	N
1:49	39406	N
1:50	39604	N
1:50	39809	N
1:50	39956	V
1:51	40214	N
1:52	40420	N
1:52	40620	N
1:53	40829	N
1:53	41037	N
1:54	41240	N
1:55	41443	N
1:55	41645	V
1:56	41855	N
1:56	42057	N
1:57	42269	N
1:58	42481	N
1:58	42618	V
1:59	42893	N
1:59	43075	V
2:00	43315	N
2:00	43526	N
2:01	43669	V
2:02	43931	N
2:02	44125	V
2:03	44351	N
2:03	44557	N
2:03	44623	+
2:04	44689	V
2:04	44981	N
2:05	45107	V
2:06	45391	N
2:06	45532	V
2:07	45822	N
2:07	45988	V
2:08	46117	+
2:08	46246	N
2:09	46451	N
2:09	46594	V
2:10	46858	N
2:10	47012	A
2:11	47261	N
2:11	47477	N
2:12	47552	+
2:12	47627	V
2:13	47891	N
2:13	48080	V
2:14	48313	N
2:14	48463	V
2:15	48725	N
2:15	48863	V
2:16	48999	+
2:16	49136	N
2:17	49344	N
2:17	49555	N
2:18	49716	V
2:18	49969	N
2:19	50180	N
2:19	50249	+
2:19	50318	V
2:20	50592	N
2:20	50721	V
2:21	51019	N
2:22	51171	V
2:22	51436	N
2:23	51601	V
2:23	51730	+
2:24	51860	N
2:24	52077	N
2:24	52144	+
2:25	52212	V
2:25	52498	N
2:26	52642	V
2:26	52919	N
2:27	53071	V
2:28	53349	N
2:28	53514	V
2:29	53650	V
2:29	53968	N
2:30	54117	V
2:30	54255	+
2:31	54394	N
2:31	54611	N
2:32	54756	V
2:32	55032	N
2:33	55178	V
2:34	55459	N
2:34	55679	N
2:34	55751	+
2:35	55823	V
2:35	56098	N
2:36	56248	V
2:37	56525	N
2:37	56673	V
2:37	56799	+
2:38	56925	N
2:38	57145	N
2:39	57294	V
2:39	57561	N
2:40	57755	V
2:41	57990	N
2:41	58207	N
2:41	58276	+
2:42	58345	V
2:42	58624	N
2:43	58771	V
2:44	59054	N
2:44	59202	V
2:45	59480	N
2:45	59649	V
2:46	59779	+
2:46	59909	N
2:46	60119	N
2:47	60265	V
2:48	60554	N
2:48	60768	F
2:49	60892	V
2:49	61190	N
2:50	61403	N
2:51	61610	N
2:51	61754	V
2:52	62029	N
2:52	62237	N
2:53	62386	V
2:54	62648	N
2:54	62865	N
2:55	63019	V
2:55	63287	N
2:56	63430	V
2:56	63701	N
2:57	63917	N
2:58	64121	N
2:58	64332	N
2:59	64546	N
2:59	64752	N
3:00	64897	V
3:00	65159	N
3:01	65353	V
3:02	65577	N
3:02	65786	N
3:03	65986	N
3:03	66147	V
3:04	66396	N
3:04	66598	N
3:05	66805	N
3:05	66932	V
3:06	67140	N
3:07	67382	N
3:07	67590	N
3:08	67800	N
3:08	68010	N
3:09	68218	N
3:09	68359	V
3:10	68622	N
3:11	68780	V
3:11	69036	N
3:12	69250	N
3:12	69396	V
3:13	69664	N
3:13	69811	V
3:14	70079	N
3:15	70288	N
3:15	70427	V
3:16	70710	N
3:16	70897	V
3:17	71123	N
3:18	71334	N
3:18	71540	N
3:19	71709	V
3:19	71955	N
3:20	72160	N
3:21	72365	N
3:21	72548	V
3:22	72784	N
3:22	72994	N
3:23	73139	V
3:23	73407	N
3:24	73555	V
3:25	73806	N
3:25	74021	N
3:26	74233	N
3:26	74449	N
3:27	74658	N
3:27	74865	N
3:28	75076	N
3:29	75291	N
3:29	75499	N
3:30	75703	N
3:30	75809	V
3:31	76118	N
3:31	76287	V
3:32	76542	N
3:33	76758	N
3:33	76831	+
3:33	76905	V
3:34	77179	N
3:34	77319	V
3:35	77604	N
3:35	77754	V
3:36	77895	+
3:36	78036	N
3:37	78247	N
3:37	78455	N
3:38	78671	N
3:39	78881	N
3:39	79093	N
3:40	79310	N
3:40	79515	N
3:41	79693	V
3:41	79847	V
3:42	80144	N
3:43	80361	N
3:43	80538	V
3:44	80775	F
3:44	80982	N
3:45	81133	V
3:46	81396	F
3:46	81612	N
3:47	81823	N
3:47	82034	N
3:48	82212	V
3:48	82375	V
3:49	82663	N
3:50	82873	N
3:50	83083	N
3:51	83290	N
3:51	83500	N
3:52	83707	N
3:53	83916	N
3:53	84128	N
3:54	84284	V
3:54	84525	V
3:55	84745	N
3:55	84956	N
3:56	85167	N
3:57	85372	N
3:57	85507	V
3:58	85779	N
3:58	85991	N
3:59	86197	N
4:00	86411	N
4:00	86625	N
4:01	86829	N
4:01	87036	N
4:02	87175	V
4:02	87455	N
4:03	87627	V
4:04	87879	N
4:04	88085	N
4:05	88225	V
4:05	88496	N
4:06	88637	V
4:07	88920	N
4:07	89132	N
4:08	89342	N
4:08	89549	N
4:09	89763	N
4:09	89980	N
4:10	90188	N
4:11	90399	N
4:11	90611	N
4:12	90824	N
4:12	91028	N
4:13	91243	N
4:14	91460	N
4:14	91666	N
4:15	91873	N
4:15	92015	V
4:16	92291	N
4:16	92498	F
4:17	92716	N
4:18	92921	N
4:18	93130	N
4:19	93293	V
4:19	93421	V
4:20	93750	N
4:20	93915	V
4:21	94180	N
4:22	94390	N
4:22	94599	N
4:23	94817	N
4:23	95031	N
4:24	95177	V
4:25	95452	N
4:25	95665	N
4:26	95798	V
4:26	96091	N
4:27	96309	N
4:28	96524	N
4:28	96738	N
4:29	96945	N
4:29	97087	V
4:30	97374	N
4:31	97589	N
4:31	97798	N
4:32	98011	N
4:32	98224	N
4:33	98366	V
4:34	98646	N
4:34	98864	N
4:35	99078	N
4:35	99290	N
4:36	99501	N
4:36	99714	N
4:37	99864	V
4:38	100139	N
4:38	100349	N
4:39	100559	N
4:39	100690	V
4:40	100986	N
4:40	101151	V
4:41	101412	N
4:42	101626	N
4:42	101836	N
4:43	102038	F
4:44	102268	N
4:44	102479	N
4:45	102691	N
4:45	102905	N
4:46	103044	V
4:47	103326	N
4:47	103547	N
4:48	103770	N
4:48	103910	V
4:49	104195	N
4:49	104352	V
4:50	104630	N
4:51	104850	N
4:51	105067	N
4:52	105276	N
4:53	105485	N
4:53	105630	V
4:54	105909	N
4:54	106125	N
4:55	106338	N
4:55	106549	N
4:56	106758	N
4:56	106900	V
4:57	107187	N
4:58	107399	N
4:58	107610	N
4:59	107737	V
5:00	108033	N
5:00	108246	N
5:01	108461	N
5:01	108611	V
5:02	108886	N
5:03	109102	N
5:03	109312	N
5:03	109386	+
5:04	109461	V
5:04	109747	N
5:05	109900	V
5:06	110171	N
5:06	110316	V
5:07	110601	N
5:07	110768	V
5:08	110905	+
5:08	111043	N
5:09	111263	N
5:09	111481	N
5:10	111692	N
5:10	111912	N
5:11	112048	V
5:12	112351	N
5:12	112565	N
5:13	112779	N
5:13	112845	+
5:13	112912	V
5:14	113210	N
5:14	113366	V
5:15	113649	N
5:16	113775	V
5:16	114073	N
5:17	114238	V
5:17	114373	+
5:18	114509	N
5:18	114725	N
5:19	114937	N
5:19	115150	N
5:20	115366	N
5:20	115508	V
5:21	115793	N
5:22	116014	N
5:22	116227	N
5:23	116356	V
5:24	116655	N
5:24	116880	N
5:25	117093	N
5:25	117225	V
5:26	117509	N
5:27	117721	N
5:27	117933	N
5:27	118064	V
5:28	118362	N
5:29	118576	N
5:29	118789	N
5:30	118916	V
5:31	119215	N
5:31	119439	N
5:32	119655	N
5:32	119799	V
5:33	120079	N
5:34	120298	N
5:34	120513	N
5:35	120658	V
5:35	120949	N
5:36	121168	N
5:37	121379	N
5:37	121570	V
5:38	121815	N
5:38	122031	N
5:39	122243	N
5:40	122430	V
5:40	122667	N
5:41	122826	V
5:41	122979	V
5:42	123311	N
5:43	123530	N
5:43	123742	N
5:44	123956	N
5:44	124176	N
5:45	124323	V
5:46	124608	N
5:46	124823	N
5:47	125042	N
5:47	125186	V
5:48	125476	N
5:49	125701	N
5:49	125920	N
5:50	126064	V
5:50	126351	N
5:51	126570	N
5:52	126790	N
5:52	127009	N
5:53	127218	N
5:53	127362	V
5:54	127643	N
5:55	127860	N
5:55	128074	N
5:56	128223	V
5:56	128506	N
5:57	128720	N
5:58	128932	N
5:58	129083	V
5:59	129369	N
5:59	129589	N
6:00	129799	N
6:00	129942	V
6:01	130219	N
6:02	130435	N
6:02	130654	N
6:03	130796	V
6:04	131076	N
6:04	131287	N
6:05	131503	N
6:05	131656	V
6:06	131926	N
6:07	132133	N
6:07	132340	N
6:07	132470	V
6:08	132761	N
6:09	132978	N
6:09	133192	N
6:10	133335	V
6:11	133610	N
6:11	133826	N
6:12	134047	N
6:12	134193	V
6:13	134471	N
6:14	134683	N
6:14	134896	N
6:15	135043	V
6:15	135325	N
6:16	135546	N
6:17	135757	N
6:17	135889	V
6:18	136179	N
6:18	136401	N
6:19	136619	N
6:19	136748	V
6:20	137040	N
6:21	137255	N
6:21	137472	N
6:22	137614	V
6:23	137898	N
6:23	138120	N
6:24	138334	N
6:24	138459	V
6:25	138761	N
6:26	138988	N
6:26	139201	N
6:27	139330	V
6:27	139628	N
6:28	139844	N
6:29	140056	N
6:29	140188	V
6:30	140485	N
6:30	140700	N
6:31	140910	N
6:31	141049	V
6:32	141337	N
6:33	141558	N
6:33	141770	N
6:34	141909	V
6:34	142185	N
6:35	142401	N
6:36	142614	N
6:36	142756	V
6:37	143043	N
6:37	143260	N
6:38	143471	N
6:38	143617	V
6:39	143910	N
6:40	144131	N
6:40	144343	N
6:41	144557	N
6:42	144773	N
6:42	144944	V
6:43	145202	N
6:43	145425	N
6:44	145638	N
6:45	145851	N
6:45	145995	V
6:46	146281	N
6:46	146490	V
6:47	146626	V
6:48	146935	N
6:48	147088	V
6:49	147372	N
6:49	147578	V
6:50	147818	N
6:51	148036	N
6:51	148168	V
6:52	148466	N
6:52	148670	V
6:53	148908	N
6:54	149127	N
6:54	149339	N
6:55	149536	V
6:56	149766	N
6:56	149985	N
6:57	150166	V
6:57	150331	V
6:58	150628	N
6:58	150782	V
6:59	151064	N
7:00	151290	N
7:00	151506	N
7:01	151702	V
7:02	151939	N
7:02	152158	N
7:03	152369	N
7:03	152584	N
7:04	152738	V
7:05	153005	N
7:05	153216	N
7:06	153428	N
7:06	153631	V
7:07	153769	V
7:07	154062	N
7:08	154211	V
7:09	154489	N
7:09	154699	N
7:10	154910	N
7:10	155129	N
7:11	155339	N
7:12	155550	N
7:12	155758	N
7:13	155973	N
7:13	156190	N
7:14	156399	N
7:15	156602	N
7:15	156808	N
7:16	157022	N
7:16	157230	N
7:17	157437	N
7:17	157646	N
7:18	157851	N
7:18	158036	V
7:19	158255	N
7:20	158470	N
7:20	158614	V
7:21	158885	N
7:21	159088	N
7:22	159298	N
7:23	159509	N
7:23	159722	N
7:24	159851	V
7:24	160142	N
7:25	160357	N
7:26	160560	N
7:26	160771	N
7:27	160986	N
7:27	161114	V
7:28	161401	N
7:28	161595	F
7:29	161818	N
7:30	162026	N
7:30	162239	N
7:31	162424	V
7:31	162653	F
7:32	162876	N
7:33	163086	N
7:33	163304	N
7:34	163521	N
7:34	163740	N
7:35	163881	V
7:35	164159	N
7:36	164338	V
7:37	164596	N
7:37	164818	N
7:38	165035	N
7:39	165249	N
7:39	165459	N
7:39	165589	V
7:40	165895	N
7:41	166112	N
7:42	166327	N
7:42	166455	V
7:43	166756	N
7:43	166975	N
7:44	167200	N
7:44	167330	V
7:45	167638	N
7:46	167859	N
7:46	168084	N
7:47	168218	V
7:48	168530	N
7:48	168749	N
7:49	168964	N
7:49	169110	V
7:50	169388	N
7:51	169611	N
7:51	169831	N
7:52	169976	V
7:52	170252	N
7:53	170465	N
7:54	170681	N
7:54	170828	V
7:55	171109	N
7:55	171321	N
7:56	171533	N
7:56	171682	V
7:57	171953	N
7:58	172169	N
7:58	172388	N
7:59	172516	V
8:00	172807	N
8:00	173023	N
8:01	173245	N
8:01	173391	V
8:02	173667	N
8:03	173880	N
8:03	174091	N
8:03	174238	V
8:04	174513	N
8:05	174730	N
8:05	174939	N
8:06	175083	V
8:07	175356	N
8:07	175572	N
8:08	175791	N
8:08	175934	V
8:09	176207	N
8:10	176421	N
8:10	176637	N
8:11	176769	V
8:11	177061	N
8:12	177282	N
8:12	177453	V
8:13	177637	V
8:14	177915	N
8:14	178048	V
8:15	178350	N
8:16	178567	N
8:16	178776	N
8:17	178988	N
8:17	179197	N
8:18	179346	V
8:18	179623	N
8:19	179833	N
8:20	180044	N
8:20	180188	V
8:21	180467	N
8:21	180687	N
8:22	180900	N
8:22	181047	V
8:23	181317	N
8:24	181536	N
8:24	181747	N
8:25	181879	V
8:26	182177	N
8:26	182389	N
8:27	182597	N
8:27	182747	V
8:28	183028	N
8:28	183238	N
8:29	183449	N
8:29	183592	V
8:30	183867	N
8:31	184076	N
8:31	184292	N
8:32	184430	V
8:32	184568	V
8:33	184903	N
8:34	185120	N
8:34	185340	N
8:35	185476	V
8:36	185770	N
8:36	185984	N
8:37	186197	N
8:37	186332	V
8:38	186621	N
8:39	186840	N
8:39	187056	N
8:39	187188	V
8:40	187481	N
8:41	187701	N
8:42	187920	N
8:42	188050	V
8:43	188342	N
8:43	188561	N
8:44	188777	N
8:44	188904	V
8:45	189199	N
8:46	189423	N
8:46	189636	N
8:47	189849	N
8:47	190061	N
8:48	190282	N
8:48	190413	V
8:49	190707	N
8:50	190918	N
8:50	191130	N
8:51	191265	V
8:52	191559	N
8:52	191777	N
8:53	191989	N
8:53	192123	V
8:54	192410	N
8:55	192631	N
8:55	192849	N
8:56	192978	V
8:56	193273	N
8:57	193470	V
8:58	193705	N
8:58	193923	N
8:59	194140	N
8:59	194315	V
9:00	194569	N
9:01	194781	N
9:01	194998	N
9:02	195178	V
9:02	195405	V
9:03	195644	N
9:04	195856	N
9:04	196069	N
9:05	196277	N
9:05	196494	N
9:06	196640	V
9:06	196917	N
9:07	197129	N
9:08	197343	N
9:08	197559	N
9:09	197774	N
9:09	197907	V
9:10	198190	N
9:11	198402	N
9:11	198614	N
9:12	198741	V
9:12	199040	N
9:13	199261	N
9:14	199469	N
9:14	199613	V
9:15	199891	N
9:15	200114	N
9:16	200326	N
9:16	200500	V
9:17	200747	N
9:18	200951	N
9:18	201160	N
9:19	201333	V
9:19	201582	N
9:20	201791	N
9:21	201999	N
9:21	202182	V
9:22	202415	N
9:22	202636	N
9:23	202846	N
9:23	203032	V
9:24	203240	V
9:25	203478	N
9:25	203689	N
9:26	203902	N
9:27	204120	N
9:27	204331	N
9:27	204479	V
9:28	204748	N
9:29	204956	V
9:29	205096	V
9:30	205398	N
9:31	205613	N
9:31	205825	N
9:32	205974	V
9:32	206254	N
9:33	206476	N
9:34	206693	N
9:34	206822	V
9:35	207122	N
9:35	207300	V
9:36	207569	N
9:37	207791	N
9:37	208002	N
9:38	208168	V
9:38	208433	N
9:39	208652	N
9:40	208870	N
9:40	209040	V
9:41	209302	N
9:41	209516	N
9:42	209731	N
9:43	209910	V
9:43	210165	N
9:44	210383	N
9:44	210595	N
9:45	210770	V
9:46	211025	N
9:46	211250	N
9:47	211470	N
9:47	211590	+
9:47	211644	V
9:48	211851	V
9:48	211988	V
9:49	212250	+
9:49	212331	N
9:50	212498	V
9:51	212770	N
9:51	212989	N
9:52	213206	N
9:52	213418	N
9:53	213632	N
9:53	213777	V
9:54	214055	N
9:55	214272	N
9:55	214483	N
9:56	214703	N
9:57	214920	N
9:57	215053	V
9:58	215340	N
9:58	215556	N
9:59	215772	N
9:59	215902	V
10:00	216205	N
10:01	216424	N
10:01	216639	N
10:02	216780	V
10:02	217067	N
10:03	217293	N
10:04	217505	N
10:04	217650	V
10:05	217923	N
10:05	218141	N
10:06	218347	N
10:06	218496	V
10:07	218773	N
10:08	218988	N
10:08	219197	N
10:09	219370	V
10:10	219626	N
10:10	219841	N
10:11	219972	V
10:11	220265	N
10:12	220484	N
10:13	220699	N
10:13	220916	N
10:14	221130	N
10:14	221275	V
10:15	221558	N
10:16	221772	N
10:16	221987	N
10:17	222203	N
10:17	222415	N
10:18	222618	N
10:18	222765	V
10:19	222925	V
10:20	223252	N
10:20	223423	V
10:21	223683	N
10:21	223899	N
10:22	224106	N
10:22	224270	V
10:23	224407	V
10:24	224742	N
10:24	224961	N
10:25	225173	N
10:26	225382	N
10:26	225592	N
10:27	225745	V
10:27	226019	N
10:28	226221	V
10:28	226351	V
10:29	226648	N
10:29	226721	+
10:29	226795	V
10:30	227077	N
10:31	227230	V
10:31	227499	N
10:32	227695	V
10:33	227927	N
10:33	228056	V
10:33	228204	+
10:34	228352	N
10:34	228569	N
10:35	228785	N
10:35	228914	V
10:36	229209	N
10:37	229415	F
10:37	229641	N
10:38	229853	N
10:39	230063	N
10:39	230273	N
10:40	230479	N
10:40	230692	N
10:41	230907	N
10:41	231073	V
10:42	231236	V
10:43	231526	N
10:43	231667	V
10:44	231962	N
10:44	232128	V
10:45	232383	N
10:46	232598	N
10:46	232731	V
10:47	233026	N
10:47	233156	V
10:48	233466	N
10:49	233683	N
10:49	233893	N
10:50	234108	N
10:50	234331	N
10:51	234488	V
10:52	234755	N
10:52	234969	N
10:53	235181	N
10:53	235343	V
10:54	235603	N
10:55	235824	N
10:55	236035	N
10:56	236205	V
10:56	236458	N
10:57	236677	N
10:58	236895	N
10:58	237069	V
10:59	237320	N
10:59	237534	N
11:00	237681	V
11:01	237964	N
11:01	238184	N
11:02	238397	N
11:02	238614	N
11:03	238819	N
11:03	239029	N
11:04	239246	N
11:05	239456	N
11:05	239667	N
11:06	239872	N
11:06	240078	N
11:07	240236	V
11:08	240496	N
11:08	240710	N
11:09	240852	V
11:09	241127	N
11:10	241298	V
11:10	241554	N
11:11	241772	N
11:11	241915	V
11:12	242192	N
11:13	242406	N
11:13	242617	N
11:14	242826	N
11:15	243040	N
11:15	243253	N
11:16	243461	N
11:16	243627	V
11:17	243874	N
11:18	244090	N
11:18	244160	+
11:18	244231	V
11:19	244505	N
11:19	244644	V
11:20	244920	N
11:20	245065	V
11:21	245342	N
11:21	245506	V
11:22	245635	+
11:22	245764	N
11:23	245974	N
11:23	246037	+
11:23	246100	V
11:24	246391	N
11:24	246540	V
11:25	246817	N
11:26	246960	V
11:26	247233	N
11:27	247401	V
11:27	247525	+
11:27	247649	N
11:28	247862	N
11:28	247935	+
11:28	248008	V
11:29	248279	N
11:30	248426	V
11:30	248668	N
11:31	248812	V
11:31	249093	N
11:32	249283	V
11:32	249394	+
11:33	249506	N
11:33	249716	N
11:34	249862	V
11:34	250136	N
11:35	250329	V
11:36	250566	N
11:36	250777	N
11:37	250984	N
11:37	251147	V
11:38	251414	N
11:38	251632	N
11:39	251846	N
11:40	252057	N
11:40	252268	N
11:41	252478	N
11:41	252626	V
11:42	252901	N
11:42	253062	V
11:43	253324	N
11:44	253539	N
11:44	253752	N
11:45	253930	V
11:45	254088	V
11:46	254379	N
11:47	254536	V
11:47	254802	N
11:48	255018	N
11:48	255164	V
11:49	255442	N
11:50	255655	N
11:50	255865	N
11:51	256077	N
11:51	256294	N
11:52	256438	V
11:53	256714	N
11:53	256880	V
11:54	257126	N
11:54	257342	N
11:55	257558	N
11:55	257733	V
11:56	257800	|
11:56	257984	N
11:57	258203	N
11:57	258414	N
11:58	258591	V
11:59	258848	N
11:59	259065	N
12:00	259276	N
12:00	259448	V
12:01	259702	N
12:01	259917	N
12:02	260131	N
12:03	260303	V
12:03	260549	N
12:04	260755	N
12:04	260900	V
12:05	261100	|
12:05	261182	N
12:06	261389	N
12:06	261594	N
12:07	261801	N
12:07	262011	N
12:08	262218	N
12:08	262359	V
12:09	262643	N
12:10	262810	V
12:10	263060	N
12:11	263269	N
12:11	263413	V
12:12	263700	N
12:13	263912	N
12:13	264116	N
12:14	264265	V
12:14	264539	N
12:15	264752	N
12:16	264965	N
12:16	265138	V
12:17	265393	N
12:17	265603	N
12:18	265742	V
12:18	266036	N
12:19	266254	N
12:20	266469	N
12:20	266610	V
12:21	266898	N
12:21	267114	N
12:22	267331	N
12:23	267480	V
12:23	267760	N
12:24	267978	N
12:24	268192	N
12:25	268328	V
12:26	268631	N
12:26	268851	N
12:27	269060	N
12:27	269206	V
12:28	269485	N
12:29	269702	N
12:29	269917	N
12:30	270065	V
12:30	270339	N
12:31	270548	N
12:32	270760	N
12:32	270909	V
12:33	271184	N
12:33	271399	N
12:34	271610	N
12:34	271799	V
12:35	272034	N
12:36	272254	N
12:36	272400	V
12:37	272684	N
12:38	272900	N
12:38	273113	N
12:39	273331	N
12:39	273545	N
12:40	273761	N
12:41	273968	N
12:41	274128	V
12:42	274387	N
12:42	274600	N
12:43	274813	N
12:43	274980	V
12:44	275237	N
12:45	275445	N
12:45	275574	V
12:46	275881	N
12:46	276093	N
12:47	276307	N
12:48	276519	N
12:48	276733	N
12:49	276944	N
12:49	277160	N
12:50	277350	V
12:51	277585	N
12:51	277794	N
12:52	277934	V
12:52	278223	N
12:53	278403	V
12:54	278645	N
12:54	278848	N
12:54	278991	V
12:55	279264	N
12:56	279476	N
12:56	279685	N
12:57	279899	N
12:58	280109	N
12:58	280314	N
12:59	280528	N
12:59	280746	N
13:00	280959	N
13:01	281168	N
13:01	281375	N
13:02	281585	N
13:02	281792	N
13:03	282003	N
13:03	282213	N
13:04	282419	N
13:05	282624	N
13:05	282827	N
13:06	283033	N
13:06	283245	N
13:07	283443	V
13:07	283547	V
13:08	283858	N
13:08	284012	V
13:09	284278	N
13:10	284491	N
13:10	284706	N
13:11	284889	V
13:11	285059	V
13:12	285328	N
13:13	285545	N
13:13	285757	N
13:14	285975	N
13:14	286183	N
13:15	286322	V
13:16	286596	N
13:16	286806	N
13:17	287011	N
13:17	287160	V
13:18	287419	N
13:18	287625	N
13:19	287836	N
13:20	288051	N
13:20	288256	N
13:21	288399	V
13:21	288673	N
13:22	288883	N
13:23	289089	N
13:23	289301	N
13:24	289515	N
13:24	289719	N
13:25	289924	N
13:25	290128	N
13:26	290337	N
13:27	290548	N
13:27	290691	V
13:28	290956	N
13:28	291163	N
13:29	291369	N
13:29	291570	N
13:30	291775	N
13:31	291988	N
13:31	292189	N
13:31	292260	+
13:32	292331	V
13:32	292598	N
13:33	292789	V
13:33	293023	N
13:34	293212	V
13:34	293323	+
13:35	293434	N
13:35	293641	N
13:36	293856	N
13:36	294049	V
13:37	294276	N
13:38	294488	N
13:38	294614	V
13:39	294902	N
13:39	295114	N
13:40	295331	N
13:40	295539	N
13:41	295749	N
13:42	295951	N
13:42	296161	N
13:43	296351	V
13:43	296579	N
13:44	296793	N
13:44	296936	V
13:45	297211	N
13:46	297422	N
13:46	297635	N
13:47	297852	N
13:47	298065	N
13:48	298206	V
13:49	298483	N
13:49	298698	N
13:50	298911	N
13:50	299061	V
13:51	299340	N
13:52	299549	N
13:52	299758	N
13:52	299832	+
13:53	299906	V
13:53	300177	N
13:54	300321	V
13:55	300603	N
13:55	300760	V
13:55	300890	+
13:56	301021	N
13:56	301235	N
13:57	301366	V
13:57	301541	V
13:58	301875	N
13:59	302091	N
13:59	302297	N
14:00	302442	V
14:00	302726	N
14:01	302940	N
14:02	303148	N
14:02	303357	N
14:03	303569	N
14:03	303695	V
14:04	303988	N
14:05	304205	N
14:05	304410	N
14:06	304614	N
14:06	304822	N
14:07	305032	N
14:07	305133	+
14:07	305235	V
14:08	305455	N
14:08	305591	V
14:09	305863	N
14:10	306035	V
14:10	306279	N
14:11	306417	V
14:11	306704	N
14:12	306856	V
14:12	306985	+
14:13	307115	N
14:13	307326	N
14:13	307400	+
14:14	307474	V
14:14	307749	N
14:15	307892	V
14:16	308165	N
14:16	308321	V
14:16	308451	+
14:17	308581	N
14:17	308796	N
14:18	309007	N
14:18	309177	V
14:19	309427	N
14:20	309628	F
14:20	309702	+
14:20	309777	V
14:21	310061	N
14:21	310207	V
14:22	310477	N
14:22	310624	V
14:23	310896	N
14:24	311062	V
14:24	311190	+
14:24	311319	N
14:25	311535	N
14:25	311678	V
14:26	311951	N
14:27	312140	V
14:27	312378	N
14:28	312593	N
14:28	312664	+
14:28	312736	V
14:29	313008	N
14:29	313152	V
14:30	313431	N
14:31	313582	V
14:31	313722	+
14:31	313862	N
14:32	314077	N
14:32	314219	V
14:33	314495	N
14:34	314690	V
14:34	314927	N
14:35	315141	N
14:35	315213	+
14:35	315286	V
14:36	315562	N
14:36	315706	V
14:37	315986	N
14:38	316137	V
14:38	316420	N
14:39	316564	V
14:39	316702	+
14:40	316841	N
14:40	317055	N
14:41	317272	N
14:41	317444	V
14:42	317697	N
14:43	317909	N
14:43	318118	N
14:44	318290	V
14:44	318538	N
14:45	318749	N
14:45	318893	V
14:46	319161	N
14:46	319302	V
14:47	319585	N
14:48	319809	N
14:48	320017	N
14:49	320229	N
14:50	320439	N
14:50	320572	V
14:51	320857	N
14:51	321073	N
14:52	321289	N
14:52	321434	V
14:53	321702	N
14:54	321915	N
14:54	322133	N
14:55	322301	V
14:55	322550	N
14:56	322759	N
14:57	322968	N
14:57	323138	V
14:58	323317	V
14:58	323602	N
14:59	323775	V
15:00	324027	N
15:00	324235	N
15:01	324444	N
15:01	324619	V
15:02	324864	N
15:02	325071	N
15:03	325275	N
15:04	325442	V
15:04	325684	N
15:05	325890	N
15:05	326036	V
15:06	326300	N
15:06	326490	V
15:07	326713	N
15:08	326923	N
15:08	327070	V
15:09	327340	N
15:09	327501	V
15:10	327746	N
15:11	327961	N
15:11	328168	N
15:12	328381	N
15:12	328591	N
15:13	328795	N
15:13	329001	N
15:14	329204	N
15:15	329417	N
15:15	329624	N
15:16	329831	N
15:16	330032	N
15:17	330233	N
15:17	330438	N
15:18	330641	N
15:19	330848	N
15:19	330996	V
15:20	331253	N
15:20	331456	N
15:21	331660	N
15:21	331796	V
15:22	332070	N
15:22	332215	V
15:23	332480	N
15:24	332686	N
15:24	332889	N
15:25	333025	V
15:25	333302	N
15:26	333451	V
15:26	333710	N
15:27	333911	N
15:28	334116	N
15:28	334326	N
15:29	334528	N
15:29	334655	V
15:30	334927	N
15:30	335056	V
15:31	335332	N
15:32	335538	N
15:32	335747	N
15:33	335952	N
15:33	336156	N
15:34	336353	N
15:34	336562	N
15:35	336776	N
15:36	336981	N
15:36	337186	N
15:37	337388	N
15:37	337593	N
15:38	337743	V
15:38	338001	N
15:39	338207	N
15:40	338411	N
15:40	338546	V
15:41	338814	N
15:41	339020	N
15:42	339230	N
15:42	339372	V
15:43	339637	N
15:44	339840	N
15:44	340045	N
15:45	340247	N
15:45	340455	N
15:46	340659	N
15:46	340866	N
15:47	341070	F
15:47	341274	N
15:48	341481	N
15:48	341612	V
15:49	341894	N
15:50	342097	N
15:50	342297	N
15:51	342499	N
15:51	342702	N
15:52	342909	N
15:53	343109	N
15:53	343314	N
15:54	343517	N
15:54	343715	N
15:55	343918	N
15:55	344123	N
15:56	344325	N
15:57	344528	N
15:57	344727	N
15:58	344927	N
15:58	345128	N
15:59	345272	V
15:59	345538	N
16:00	345745	N
16:00	345949	N
16:01	346149	N
16:02	346351	N
16:02	346559	N
16:03	346761	N
16:03	346965	N
16:04	347166	N
16:04	347367	N
16:05	347514	V
16:06	347771	N
16:06	347916	V
16:07	348184	N
16:07	348331	V
16:07	348442	V
16:08	348779	N
16:09	348996	N
16:10	349201	N
16:10	349408	N
16:11	349613	N
16:11	349819	N
16:12	350026	N
16:12	350236	N
16:13	350446	N
16:14	350653	N
16:14	350859	N
16:15	351062	N
16:15	351271	N
16:16	351487	N
16:16	351691	N
16:17	351830	V
16:18	352097	N
16:18	352265	V
16:19	352514	N
16:19	352727	N
16:20	352943	N
16:20	353148	N
16:21	353293	V
16:22	353555	N
16:22	353756	V
16:23	353985	N
16:23	354195	N
16:24	354333	V
16:25	354602	N
16:25	354777	V
16:25	354902	V
16:26	355224	N
16:27	355440	N
16:27	355648	N
16:28	355788	V
16:29	356061	N
16:29	356238	V
16:30	356488	N
16:30	356701	N
16:31	356839	V
16:31	357113	N
16:32	357299	V
16:33	357539	N
16:33	357755	N
16:34	357895	V
16:34	358170	N
16:35	358312	V
16:36	358594	N
16:36	358813	N
16:37	359024	N
16:37	359232	N
16:38	359440	N
16:38	359507	+
16:38	359575	V
16:39	359858	N
16:40	360003	V
16:40	360290	N
16:41	360441	V
16:41	360575	+
16:41	360709	N
16:42	360924	N
16:43	361142	N
16:43	361300	V
16:44	361561	N
16:44	361772	N
16:45	361980	N
16:45	362139	V
16:46	362398	N
16:47	362616	N
16:47	362757	V
16:48	363031	N
16:48	363171	V
16:49	363456	N
16:50	363674	N
16:50	363881	N
16:51	364022	V
16:51	364294	N
16:52	364511	N
16:53	364716	N
16:53	364863	V
16:54	365140	N
16:54	365349	N
16:55	365554	N
16:55	365685	V
16:56	365977	N
16:57	366188	N
16:57	366397	N
16:58	366524	V
16:58	366809	N
16:59	367022	N
17:00	367234	N
17:00	367446	N
17:01	367656	N
17:01	367803	V
17:02	368068	N
17:03	368281	N
17:03	368497	N
17:04	368707	N
17:04	368913	N
17:05	369057	V
17:05	369324	N
17:06	369478	V
17:07	369738	N
17:07	369949	N
17:08	370156	N
17:08	370362	N
17:09	370570	N
17:09	370717	V
17:10	370993	N
17:11	371205	N
17:11	371406	N
17:12	371558	A
17:12	371797	N
17:13	372007	N
17:13	372153	V
17:14	372425	N
17:14	372577	V
17:15	372841	N
17:16	373054	N
17:16	373264	N
17:17	373419	V
17:17	373678	N
17:18	373883	N
17:19	374088	N
17:19	374248	V
17:20	374500	N
17:20	374711	N
17:21	374919	N
17:21	375089	V
17:22	375323	N
17:23	375532	N
17:23	375677	V
17:24	375949	N
17:24	376161	N
17:25	376364	N
17:26	376569	N
17:26	376774	N
17:26	376916	V
17:27	377192	N
17:28	377357	V
17:28	377609	N
17:29	377811	N
17:29	377952	V
17:30	378225	N
17:31	378409	V
17:31	378636	N
17:32	378840	N
17:32	378982	V
17:33	379248	N
17:33	379420	V
17:34	379660	N
17:35	379867	N
17:35	379996	V
17:36	380273	N
17:36	380418	V
17:37	380699	N
17:38	380907	N
17:38	381112	N
17:39	381321	N
17:39	381529	N
17:40	381673	V
17:40	381941	N
17:41	382156	N
17:42	382361	N
17:42	382513	V
17:43	382769	N
17:43	382982	N
17:44	383195	N
17:45	383403	N
17:45	383606	N
17:45	383737	V
17:46	383988	N
17:47	384201	N
17:47	384413	N
17:48	384629	N
17:48	384836	N
17:49	384984	V
17:50	385249	N
17:50	385407	V
17:51	385678	N
17:51	385893	N
17:52	386099	N
17:53	386304	N
17:53	386515	N
17:54	386724	N
17:54	386935	N
17:55	387142	N
17:55	387286	V
17:56	387532	N
17:56	387718	V
17:57	387962	N
17:58	388173	N
17:58	388384	N
17:59	388539	V
17:59	388672	V
18:00	389002	N
18:01	389172	V
18:01	389436	N
18:02	389646	N
18:02	389857	N
18:03	390068	N
18:04	390283	N
18:04	390432	V
18:05	390702	N
18:05	390909	N
18:06	391117	N
18:06	391265	A
18:07	391501	N
18:08	391719	N
18:08	391935	N
18:09	392086	V
18:09	392349	N
18:10	392561	N
18:11	392781	N
18:11	392945	V
18:12	393204	N
18:12	393417	N
18:13	393626	N
18:13	393789	V
18:14	394044	N
18:15	394262	N
18:15	394401	A
18:16	394644	N
18:16	394852	N
18:17	395064	N
18:18	395281	N
18:18	395485	N
18:19	395691	N
18:19	395834	V
18:20	396102	N
18:20	396311	N
18:21	396520	N
18:21	396673	V
18:22	396938	N
18:23	397151	N
18:23	397256	V
18:24	397570	N
18:24	397787	N
18:25	397999	N
18:25	398071	+
18:25	398143	V
18:26	398408	N
18:27	398555	V
18:27	398833	N
18:28	398988	V
18:28	399121	+
18:29	399255	N
18:29	399467	N
18:30	399672	N
18:30	399881	N
18:31	400095	N
18:31	400237	V
18:32	400512	N
18:33	400722	N
18:33	400929	N
18:34	401136	N
18:34	401349	N
18:35	401563	N
18:36	401768	N
18:36	401977	N
18:37	402179	N
18:37	402324	V
18:38	402597	N
18:38	402807	N
18:39	403012	N
18:40	403215	N
18:40	403422	N
18:41	403562	V
18:41	403831	N
18:42	404044	N
18:42	404246	N
18:43	404449	N
18:44	404654	N
18:44	404866	N
18:45	405077	N
18:45	405284	N
18:46	405485	N
18:46	405633	V
18:47	405899	N
18:47	406078	V
18:48	406316	N
18:49	406531	N
18:49	406737	N
18:50	406940	N
18:50	407102	V
18:51	407280	V
18:52	407572	N
18:52	407745	V
18:53	407987	N
18:53	408166	V
18:54	408402	N
18:55	408613	N
18:55	408755	V
18:56	409034	N
18:56	409217	V
18:57	409449	N
18:57	409662	N
18:58	409878	N
18:59	410086	N
18:59	410295	N
19:00	410504	N
19:00	410645	V
19:01	410917	N
19:01	411084	V
19:02	411341	N
19:03	411555	N
19:03	411764	N
19:04	411970	N
19:04	412179	N
19:05	412329	V
19:06	412599	N
19:06	412806	N
19:07	413012	N
19:07	413225	N
19:08	413433	N
19:08	413580	V
19:09	413749	V
19:10	414057	N
19:10	414213	V
19:11	414475	N
19:11	414691	N
19:12	414903	N
19:13	415112	N
19:13	415317	N
19:14	415523	N
19:14	415672	V
19:15	415943	N
19:15	416123	V
19:16	416365	N
19:17	416575	N
19:17	416780	N
19:18	416935	V
19:18	417072	V
19:19	417397	N
19:19	417562	V
19:20	417817	N
19:21	418027	N
19:21	418168	V
19:22	418441	N
19:22	418629	V
19:23	418864	N
19:24	419072	N
19:24	419214	V
19:25	419488	N
19:25	419680	V
19:26	419820	V
19:26	420116	N
19:27	420327	N
19:28	420539	N
19:28	420732	V
19:29	420958	N
19:29	421173	N
19:30	421310	V
19:31	421580	N
19:31	421764	V
19:32	422011	N
19:32	422222	N
19:33	422293	+
19:33	422364	V
19:33	422633	N
19:34	422818	V
19:35	423049	N
19:35	423213	V
19:35	423342	+
19:36	423472	N
19:36	423682	N
19:37	423827	V
19:38	424092	N
19:38	424307	N
19:39	424525	N
19:39	424670	V
19:40	424937	N
19:40	425148	N
19:41	425363	N
19:41	425504	V
19:42	425778	N
19:43	425998	N
19:43	426207	N
19:44	426352	V
19:45	426623	N
19:45	426844	N
19:46	427056	N
19:46	427203	V
19:47	427477	N
19:48	427689	N
19:48	427901	N
19:49	428048	V
19:49	428332	N
19:50	428543	N
19:50	428754	N
19:51	428899	V
19:52	429177	N
19:52	429397	N
19:53	429606	N
19:53	429748	V
19:54	430014	N
19:55	430200	V
19:55	430436	N
19:56	430652	N
19:56	430861	N
19:57	431014	V
19:57	431273	N
19:58	431484	N
19:59	431698	N
19:59	431902	N
20:00	432114	N
20:00	432320	N
20:01	432526	N
20:02	432730	N
20:02	432939	N
20:03	433151	N
20:03	433356	N
20:04	433563	N
20:04	433764	N
20:05	433973	N
20:06	434184	N
20:06	434388	N
20:07	434592	N
20:07	434796	N
20:08	435005	N
20:08	435208	N
20:09	435355	V
20:10	435626	N
20:10	435835	N
20:11	436046	N
20:11	436188	V
20:12	436468	N
20:12	436625	V
20:13	436901	N
20:14	437110	N
20:14	437320	N
20:15	437537	N
20:15	437704	V
20:16	437958	N
20:17	438173	N
20:17	438382	N
20:18	438530	V
20:18	438794	N
20:19	439015	N
20:20	439227	N
20:20	439440	N
20:21	439644	N
20:21	439786	V
20:22	440064	N
20:23	440285	N
20:23	440494	N
20:23	440639	V
20:24	440912	N
20:25	441121	N
20:25	441333	N
20:26	441484	V
20:27	441757	N
20:27	441941	V
20:28	442177	N
20:28	442392	N
20:29	442600	N
20:30	442812	N
20:30	442961	V
20:31	443233	N
20:31	443447	N
20:32	443659	N
20:32	443806	V
20:33	444084	N
20:34	444301	N
20:34	444509	N
20:35	444652	V
20:35	444931	N
20:36	445105	V
20:37	445369	N
20:37	445584	N
20:38	445796	N
20:38	445944	V
20:39	446148	V
20:40	446440	N
20:40	446586	V
20:40	446732	V
20:41	447056	N
20:42	447274	N
20:43	447486	N
20:43	447701	N
20:44	447918	N
20:44	448060	V
20:45	448330	N
20:45	448545	N
20:46	448766	N
20:46	448911	V
20:47	449191	N
20:48	449409	N
20:48	449623	N
20:49	449768	V
20:50	450048	N
20:50	450271	N
20:51	450484	N
20:51	450616	V
20:52	450907	N
20:53	451110	N
20:53	451336	N
20:54	451546	N
20:54	451750	N
20:55	451958	N
20:56	452174	N
20:56	452385	N
20:57	452595	N
20:57	452747	V
20:58	453020	N
20:58	453232	N
20:59	453446	N
20:59	453582	V
21:00	453882	N
21:01	454100	N
21:01	454310	N
21:02	454435	V
21:03	454737	N
21:03	454958	N
21:04	455180	N
21:04	455392	N
21:05	455606	N
21:06	455820	N
21:06	456039	N
21:07	456184	V
21:07	456467	N
21:08	456682	N
21:09	456894	N
21:09	457037	V
21:10	457328	N
21:10	457552	N
21:11	457767	N
21:11	457911	V
21:12	458199	N
21:13	458427	N
21:14	458647	N
21:14	458792	V
21:15	459076	N
21:15	459291	N
21:16	459507	N
21:16	459651	V
21:17	459943	N
21:18	460160	N
21:18	460376	N
21:19	460516	V
21:20	460806	N
21:20	461031	N
21:21	461248	N
21:21	461392	V
21:22	461675	N
21:23	461891	N
21:23	462108	N
21:23	462237	V
21:24	462543	N
21:25	462760	N
21:26	462970	N
21:26	463119	V
21:27	463406	N
21:27	463618	N
21:28	463824	N
21:28	463969	V
21:29	464248	N
21:30	464462	N
21:30	464674	N
21:31	464825	V
21:31	465101	N
21:32	465315	N
21:33	465527	N
21:33	465678	V
21:34	465958	N
21:34	466173	N
21:35	466384	N
21:35	466527	V
21:36	466810	N
21:37	467028	N
21:37	467247	N
21:38	467388	V
21:39	467668	N
21:39	467881	N
21:40	468097	N
21:40	468250	V
21:41	468525	N
21:42	468735	N
21:42	468944	N
21:43	469097	V
21:43	469369	N
21:44	469586	N
21:44	469797	N
21:45	469946	V
21:46	470218	N
21:46	470435	N
21:47	470652	N
21:47	470798	V
21:48	471078	N
21:49	471291	N
21:49	471502	N
21:50	471647	V
21:50	471923	N
21:51	472144	N
21:52	472351	N
21:52	472500	V
21:53	472770	N
21:53	472990	N
21:54	473202	N
21:54	473355	V
21:55	473622	N
21:56	473836	N
21:56	474046	N
21:57	474240	V
21:57	474476	N
21:58	474690	N
21:59	474900	N
21:59	475087	V
22:00	475217	V
22:00	475544	N
22:01	475674	V
22:02	475964	N
22:02	476180	N
22:03	476392	N
22:03	476577	V
22:04	476812	N
22:05	477031	N
22:05	477239	N
22:06	477410	V
22:06	477556	V
22:07	477869	N
22:07	478034	V
22:08	478295	N
22:09	478497	N
22:09	478704	N
22:10	478912	N
22:10	479119	N
22:11	479267	V
22:12	479538	N
22:12	479750	N
22:13	479953	N
22:13	480152	V
22:14	480291	V
22:14	480582	N
22:15	480737	V
22:16	480992	N
22:16	481185	V
22:17	481401	N
22:17	481608	N
22:18	481810	N
22:18	481986	V
22:19	482218	N
22:20	482416	N
22:20	482619	N
22:21	482800	V
22:21	482948	V
22:22	483229	N
22:22	483430	N
22:23	483630	N
22:23	483830	N
22:24	484007	V
22:24	484157	V
22:25	484446	N
22:26	484652	N
22:26	484818	V
22:27	485053	N
22:27	485261	N
22:28	485343	+
22:28	485406	V
22:28	485582	V
22:29	485722	V
22:29	485991	+
22:30	486056	N
22:30	486227	V
22:31	486385	V
22:31	486675	N
22:32	486760	+
22:32	486823	V
22:32	487044	V
22:33	487200	V
22:33	487422	+
22:34	487495	N
22:34	487658	V
22:35	487917	N
22:35	488124	N
22:36	488327	N
22:37	488531	N
22:37	488672	V
22:38	488940	N
22:38	489153	V
22:39	489313	V
22:39	489560	N
22:40	489767	N
22:41	489976	N
22:41	490166	V
22:42	490391	N
22:42	490591	N
22:43	490739	V
22:43	491000	N
22:44	491205	N
22:45	491412	N
22:45	491563	V
22:46	491826	N
22:46	492031	N
22:47	492237	N
22:47	492319	+
22:47	492386	V
22:48	492594	V
22:48	492720	V
22:49	492965	+
22:49	493052	N
22:50	493266	N
22:50	493476	N
22:51	493618	V
22:51	493894	N
22:52	494063	V
22:53	494317	N
22:53	494524	N
22:54	494731	N
22:54	494947	N
22:55	495155	N
22:56	495364	N
22:56	495569	N
22:57	495776	N
22:57	495920	V
22:58	496193	N
22:58	496412	N
22:59	496621	N
22:59	496768	V
23:00	497038	N
23:01	497256	N
23:01	497470	N
23:02	497617	V
23:03	497884	N
23:03	498095	N
23:04	498306	N
23:04	498453	V
23:05	498729	N
23:05	498942	N
23:06	499150	N
23:06	499293	V
23:07	499562	N
23:08	499781	N
23:08	499988	N
23:09	500136	V
23:10	500405	N
23:10	500618	N
23:11	500827	N
23:11	500979	V
23:12	501260	N
23:12	501473	N
23:13	501682	N
23:13	501829	V
23:14	502110	N
23:15	502330	N
23:15	502543	N
23:16	502686	V
23:17	502958	N
23:17	503172	N
23:18	503385	N
23:18	503529	V
23:19	503807	N
23:20	504019	N
23:20	504225	N
23:21	504371	V
23:21	504653	N
23:22	504866	N
23:22	505075	N
23:23	505221	V
23:24	505495	N
23:24	505706	N
23:25	505918	N
23:25	506070	V
23:26	506345	N
23:27	506558	N
23:27	506767	N
23:28	506918	V
23:28	507201	N
23:29	507416	N
23:30	507621	N
23:30	507785	V
23:31	508037	N
23:31	508247	N
23:32	508455	N
23:32	508667	N
23:33	508878	N
23:34	509084	N
23:34	509296	N
23:35	509516	N
23:35	509726	N
23:36	509937	N
23:37	510145	N
23:37	510359	N
23:38	510569	N
23:38	510782	N
23:39	510856	+
23:39	510931	V
23:40	511203	N
23:40	511375	V
23:41	511628	N
23:41	511776	V
23:42	512057	N
23:42	512248	V
23:43	512367	+
23:43	512487	N
23:44	512704	N
23:44	512919	N
23:45	513102	V
23:45	513355	N
23:46	513573	N
23:47	513788	N
23:47	513965	V
23:48	514214	N
23:48	514436	N
23:49	514650	N
23:50	514818	V
23:50	515068	N
23:51	515283	N
23:51	515493	N
23:52	515666	V
23:53	515926	N
23:53	516138	N
23:54	516346	N
23:54	516513	V
23:55	516659	V
23:56	516992	N
23:56	517140	V
23:57	517423	N
23:57	517644	N
23:58	517860	N
23:58	518007	V
23:59	518305	N
24:00	518501	V
24:00	518741	N
24:01	518961	N
24:02	519185	N
24:02	519404	N
24:03	519621	N
24:03	519831	N
24:04	520048	N
24:05	520259	N
24:05	520476	N
24:06	520623	V
24:06	520906	N
24:07	521119	N
24:08	521326	N
24:08	521473	V
24:09	521759	N
24:09	521959	V
24:10	522184	N
24:11	522397	N
24:11	522612	N
24:12	522773	V
24:12	523038	N
24:13	523253	N
24:14	523464	N
24:14	523624	V
24:15	523886	N
24:15	524106	N
24:16	524317	N
24:16	524486	V
24:17	524640	V
24:18	524944	N
24:18	525087	V
24:19	525368	N
24:19	525513	V
24:20	525794	N
24:20	525940	V
24:21	526129	V
24:22	526440	N
24:22	526661	N
24:23	526878	N
24:23	527018	V
24:24	527303	N
24:25	527499	V
24:25	527733	N
24:26	527949	N
24:27	528158	N
24:27	528323	V
24:28	528579	N
24:28	528798	N
24:29	529013	N
24:29	529195	V
24:30	529430	N
24:31	529645	N
24:31	529856	N
24:32	530039	V
24:33	530281	N
24:33	530498	N
24:34	530708	N
24:34	530890	V
24:35	531035	V
24:35	531342	N
24:36	531491	V
24:36	531677	V
24:37	531978	N
24:38	532193	N
24:38	532333	V
24:39	532608	N
24:40	532802	V
24:40	533037	N
24:41	533247	N
24:41	533454	N
24:42	533618	V
24:43	533881	N
24:43	534095	N
24:43	534231	V
24:44	534510	N
24:45	534727	N
24:45	534944	N
24:46	535084	V
24:47	535367	N
24:47	535584	N
24:48	535796	N
24:48	535941	V
24:49	536226	N
24:50	536443	N
24:50	536653	N
24:51	536798	V
24:51	537076	N
24:52	537293	N
24:53	537508	N
24:53	537639	V
24:54	537933	N
24:54	538146	N
24:55	538357	N
24:55	538504	V
24:56	538785	N
24:57	539003	N
24:57	539212	N
24:58	539351	V
24:58	539626	N
24:59	539847	N
25:00	540063	N
25:00	540209	V
25:01	540481	N
25:01	540693	N
25:02	540905	N
25:02	541057	V
25:03	541330	N
25:04	541543	N
25:04	541753	N
25:05	541899	V
25:06	542170	N
25:06	542383	N
25:07	542599	N
25:07	542742	V
25:08	543014	N
25:08	543228	N
25:09	543446	N
25:09	543591	V
25:10	543864	N
25:11	544079	N
25:11	544289	N
25:12	544437	V
25:13	544710	N
25:13	544929	N
25:14	545140	N
25:14	545287	V
25:15	545555	N
25:16	545773	N
25:16	545993	N
25:17	546135	V
25:17	546407	N
25:18	546619	N
25:18	546834	N
25:19	546974	V
25:20	547255	N
25:20	547476	N
25:21	547680	N
25:21	547824	V
25:22	548090	N
25:23	548310	N
25:23	548522	N
25:24	548671	V
25:24	548938	N
25:25	549151	N
25:26	549362	N
25:26	549437	+
25:26	549512	V
25:27	549782	N
25:27	549929	V
25:28	550206	N
25:28	550364	V
25:29	550493	+
25:29	550622	N
25:30	550837	N
25:30	551045	N
25:31	551250	N
25:31	551456	N
25:32	551667	N
25:32	551874	N
25:33	552087	N
25:33	552237	V
25:34	552507	N
25:35	552709	V
25:35	552844	V
25:36	553153	N
25:37	553372	N
25:37	553591	N
25:38	553718	V
25:38	554014	N
25:39	554229	N
25:40	554449	N
25:40	554596	V
25:41	554880	N
25:41	555096	N
25:42	555306	N
25:42	555456	V
25:43	555740	N
25:44	555955	N
25:44	556163	N
25:45	556307	V
25:46	556587	N
25:46	556806	N
25:47	557027	N
25:47	557174	V
25:48	557460	N
25:49	557675	N
25:49	557897	N
25:50	558047	V
25:50	558331	N
25:51	558546	N
25:52	558760	N
25:52	558891	V
25:53	559184	N
25:53	559402	N
25:54	559617	N
25:54	559743	V
25:55	560034	N
25:56	560250	N
25:56	560471	N
25:57	560599	V
25:58	560897	N
25:58	561112	N
25:59	561330	N
25:59	561473	V
26:00	561755	N
26:01	561975	N
26:01	562189	N
26:02	562333	V
26:02	562613	N
26:03	562837	N
26:04	563054	N
26:04	563187	V
26:05	563476	N
26:05	563691	N
26:06	563903	N
26:06	564036	V
26:07	564341	N
26:08	564554	N
26:08	564765	N
26:09	564893	V
26:09	565187	N
26:10	565403	N
26:11	565618	N
26:11	565758	V
26:12	566038	N
26:12	566256	N
26:13	566474	N
26:13	566620	V
26:14	566903	N
26:15	567120	N
26:15	567330	N
26:16	567476	V
26:17	567763	N
26:17	567978	N
26:18	568183	N
26:18	568330	V
26:19	568598	N
26:20	568806	N
26:20	569021	N
26:21	569173	V
26:21	569441	N
26:22	569648	N
26:22	569858	N
26:23	570057	V
26:24	570288	N
26:24	570502	N
26:25	570628	V
26:25	570922	N
26:26	571133	N
26:27	571346	N
26:27	571489	V
26:28	571768	N
26:28	571980	N
26:29	572182	N
26:29	572326	V
26:30	572609	N
26:31	572824	N
26:31	573026	N
26:32	573170	V
26:32	573444	N
26:33	573651	N
26:34	573864	N
26:34	573995	V
26:35	574289	N
26:35	574498	N
26:36	574710	N
26:36	574859	V
26:37	575142	N
26:38	575357	N
26:38	575563	N
26:39	575705	V
26:39	575982	N
26:40	576199	N
26:41	576410	N
26:41	576554	V
26:42	576835	N
26:42	577046	N
26:43	577254	N
26:43	577392	V
26:44	577680	N
26:45	577890	N
26:45	578098	N
26:46	578243	V
26:46	578516	N
26:47	578733	N
26:48	578947	N
26:48	579091	V
26:49	579361	N
26:49	579573	N
26:50	579783	N
26:50	579932	V
26:51	580205	N
26:52	580415	N
26:52	580622	N
26:53	580769	V
26:53	581037	N
26:54	581250	N
26:55	581464	N
26:55	581593	V
26:56	581877	N
26:56	582090	N
26:57	582308	N
26:57	582451	V
26:58	582725	N
26:59	582938	N
26:59	583150	N
27:00	583296	V
27:01	583571	N
27:01	583790	N
27:02	584000	N
27:02	584146	V
27:03	584417	N
27:03	584636	N
27:04	584852	N
27:04	584999	V
27:05	585271	N
27:06	585488	N
27:06	585700	N
27:07	585843	V
27:08	586126	N
27:08	586345	N
27:09	586558	N
27:09	586702	V
27:10	586983	N
27:11	587208	N
27:11	587419	N
27:12	587564	V
27:12	587835	N
27:13	588057	N
27:14	588268	N
27:14	588413	V
27:15	588700	N
27:15	588918	N
27:16	589129	N
27:16	589273	V
27:17	589557	N
27:18	589774	N
27:18	589986	N
27:19	590126	V
27:20	590407	N
27:20	590622	N
27:21	590837	N
27:21	590986	V
27:22	591262	N
27:23	591480	N
27:23	591694	N
27:24	591843	V
27:24	592126	N
27:25	592346	N
27:25	592556	N
27:26	592697	V
27:27	592980	N
27:27	593202	N
27:28	593419	N
27:28	593563	V
27:29	593837	N
27:30	594052	N
27:30	594270	N
27:31	594420	V
27:31	594572	V
27:32	594900	N
27:32	595074	V
27:33	595327	N
27:34	595486	V
27:34	595752	N
27:35	595970	N
27:36	596182	N
27:36	596390	F
27:37	596607	N
27:37	596829	N
27:38	597039	N
27:38	597186	V
27:39	597462	N
27:40	597663	V
27:40	597784	V
27:41	598097	N
27:42	598323	N
27:42	598533	N
27:42	598677	V
27:43	598952	N
27:44	599175	N
27:44	599387	N
27:45	599533	V
27:46	599805	N
27:46	600020	N
27:47	600234	N
27:47	600378	V
27:48	600664	N
27:49	600879	N
27:49	601094	N
27:50	601235	V
27:50	601515	N
27:51	601735	N
27:52	601949	N
27:52	602090	V
27:53	602369	N
27:53	602587	N
27:54	602801	N
27:54	602944	V
27:55	603223	N
27:56	603441	N
27:56	603653	N
27:57	603796	V
27:58	604089	N
27:58	604308	N
27:59	604522	N
27:59	604666	V
28:00	604954	N
28:01	605171	N
28:01	605393	N
28:01	605492	+
28:02	605591	V
28:02	605826	N
28:03	605975	V
28:04	606257	N
28:04	606433	V
28:05	606695	N
28:05	606847	V
28:06	607124	N
28:06	607307	V
28:07	607429	+
28:07	607552	N
28:08	607775	N
28:08	607999	N
28:09	608213	N
28:10	608427	N
28:10	608567	V
28:10	608737	V
28:11	609081	N
28:12	609304	N
28:13	609521	N
28:13	609663	V
28:14	609954	N
28:14	610124	V
28:15	610399	N
28:16	610618	N
28:16	610834	N
28:17	611015	V
28:17	611267	N
28:18	611487	N
28:19	611677	V
28:19	611912	N
28:20	612129	N
28:20	612276	V
28:21	612563	N
28:22	612725	V
28:22	613001	N
28:23	613221	N
28:23	613362	V
28:24	613654	N
28:25	613879	N
28:25	614100	N
28:26	614240	V
28:27	614525	N
28:27	614744	N
28:28	614961	N
28:28	615108	V
28:29	615397	N
28:29	615575	A
28:30	615818	N
28:31	616035	N
28:31	616252	N
28:32	616468	N
28:32	616678	N
28:33	616823	V
28:34	617102	N
28:34	617319	N
28:35	617537	N
28:35	617685	V
28:36	617970	N
28:37	618188	N
28:37	618405	N
28:38	618556	V
28:38	618835	N
28:39	619055	N
28:40	619268	N
28:40	619439	V
28:41	619688	N
28:41	619906	N
28:42	620124	N
28:43	620294	V
28:43	620544	N
28:44	620757	N
28:44	620974	N
28:45	621155	V
28:45	621297	V
28:46	621610	N
28:47	621763	V
28:47	622040	N
28:48	622263	N
28:49	622483	N
28:49	622675	V
28:50	622912	N
28:50	623124	N
28:51	623345	N
28:52	623542	V
28:52	623671	V
28:53	623981	N
28:53	624133	V
28:54	624412	N
28:55	624632	N
28:55	624848	N
28:56	625026	V
28:56	625276	N
28:57	625487	N
28:58	625705	N
28:58	625904	V
28:58	626034	V
28:59	626347	N
29:00	626497	V
29:01	626780	N
29:01	626997	N
29:02	627213	N
29:02	627402	V
29:03	627643	N
29:04	627857	N
29:04	628072	N
29:05	628266	V
29:05	628399	V
29:06	628707	N
29:06	628855	V
29:07	629132	N
29:08	629349	N
29:08	629566	N
29:08	629638	+
29:09	629711	V
29:09	629994	N
29:10	630141	V
29:11	630428	N
29:11	630601	V
29:12	630737	+
29:12	630874	N
29:13	631097	N
29:13	631310	N
29:13	631418	+
29:14	631488	V
29:14	631630	V
29:14	631784	V
29:15	632061	+
29:15	632138	N
29:16	632310	V
29:17	632571	N
29:17	632786	N
29:18	633003	N
29:18	633219	N
29:19	633431	N
29:19	633571	V
29:20	633851	N
29:21	634008	V
29:21	634276	N
29:22	634492	N
29:23	634710	N
29:23	634880	V
29:24	635131	N
29:24	635349	N
29:25	635571	N
29:25	635745	V
29:26	635990	N
29:27	636198	N
29:27	636415	N
29:28	636602	V
29:28	636730	V
29:29	637046	N
29:30	637202	V
29:30	637466	N
29:31	637637	V
29:31	637897	N
29:32	638113	N
29:32	638260	V
29:33	638530	N
29:34	638677	V
29:34	638954	N
29:35	639174	N
29:35	639320	V
29:36	639605	N
29:37	639811	V
29:37	640024	N
29:38	640235	N
29:39	640454	N
29:39	640666	N
29:40	640809	V
29:40	641078	N
29:41	641291	N
29:41	641498	N
29:42	641706	N
29:43	641917	N
29:43	642121	N
29:44	642325	N
29:44	642508	V
29:45	642742	N
29:45	642952	N
29:46	643160	N
29:47	643333	V
29:47	643468	V
29:48	643777	N
29:48	643938	V
29:49	644201	N
29:50	644410	N
29:50	644479	+
29:50	644548	V
29:51	644816	N
29:51	644963	V
29:52	645245	N
29:52	645388	V
29:53	645662	N
29:53	645803	V
29:54	646079	N
29:55	646241	V
29:55	646373	+
29:55	646505	N
29:56	646728	N
29:57	646940	N
29:57	647154	N
29:58	647367	N
29:58	647513	V
29:59	647808	N
30:00	648026	N
30:00	648240	N
30:01	648382	V
30:01	648653	N
30:02	648873	N
30:03	649090	N
30:03	649237	V
30:04	649518	N
30:04	649730	N
30:05	649946	N
