0:00	135	N
0:01	366	N
0:01	606	N
0:02	841	N
0:03	1082	N
0:03	1327	N
0:04	1562	N
0:04	1794	N
0:05	2042	N
0:06	2289	N
0:07	2528	N
0:07	2759	N
0:08	2994	N
0:08	3227	N
0:09	3463	N
0:10	3704	N
0:10	3938	N
0:11	4166	N
0:12	4400	N
0:12	4646	N
0:13	4880	N
0:14	5108	N
0:14	5339	N
0:15	5572	N
0:16	5805	N
0:16	6036	N
0:17	6271	N
0:18	6506	N
0:18	6736	N
0:19	6974	N
0:20	7210	N
0:20	7445	N
0:21	7676	N
0:21	7909	N
0:22	8142	N
0:23	8380	N
0:23	8622	N
0:24	8852	N
0:25	9084	N
0:25	9322	N
0:26	9568	N
0:27	9805	N
0:27	10034	N
0:28	10266	N
0:29	10503	N
0:29	10741	N
0:30	10982	N
0:31	11211	N
0:31	11441	N
0:32	11673	N
0:33	11915	N
0:33	12147	N
0:34	12378	N
0:35	12608	N
0:35	12844	N
0:36	13073	N
0:36	13310	N
0:37	13546	N
0:38	13780	N
0:38	14009	N
0:39	14250	N
0:40	14489	N
0:40	14723	N
0:41	14952	N
0:42	15185	N
0:42	15415	N
0:43	15651	N
0:44	15892	N
0:44	16120	N
0:45	16348	N
0:46	16581	N
0:46	16827	N
0:47	17060	N
0:48	17288	N
0:48	17518	N
0:49	17755	N
0:49	17992	N
0:50	18230	N
0:51	18463	N
0:51	18697	N
0:52	18927	N
0:53	19171	N
0:53	19404	N
0:54	19637	N
0:55	19863	N
0:55	20094	N
0:56	20320	N
0:57	20553	N
0:57	20785	N
0:58	21014	N
0:58	21238	N
0:59	21470	N
1:00	21705	N
1:00	21936	N
1:01	22162	N
1:02	22392	N
1:02	22624	N
1:03	22859	N
1:04	23097	N
1:04	23326	N
1:05	23557	N
1:06	23785	N
1:06	24026	N
1:07	24255	N
1:08	24485	N
1:08	24712	N
1:09	24942	N
1:09	25167	N
1:10	25403	N
1:11	25638	N
1:11	25867	N
1:12	26090	N
1:13	26329	N
1:13	26568	N
1:14	26803	N
1:15	27028	N
1:15	27259	N
1:16	27490	N
1:17	27723	N
1:17	27964	N
1:18	28195	N
1:18	28423	N
1:19	28654	N
1:20	28896	N
1:20	29128	N
1:21	29357	N
1:22	29587	N
1:22	29825	N
1:23	30056	N
1:24	30291	N
1:24	30522	N
1:25	30755	N
1:26	30980	N
1:26	31217	N
1:27	31452	N
1:28	31685	N
1:28	31909	N
1:29	32139	N
1:29	32367	N
1:30	32602	N
1:31	32837	N
1:31	33065	N
1:32	33290	N
1:33	33519	N
1:33	33756	N
1:34	33988	N
1:35	34216	N
1:35	34440	N
1:36	34674	N
1:36	34904	N
1:37	35140	N
1:38	35374	N
1:38	35604	N
1:39	35832	N
1:40	36070	N
1:40	36307	N
1:41	36542	N
1:42	36767	N
1:42	36997	N
1:43	37224	N
1:44	37459	N
1:44	37695	N
1:45	37923	N
1:45	38151	N
1:46	38385	N
1:47	38628	N
1:47	38860	N
1:48	39090	N
1:49	39323	N
1:49	39557	N
1:50	39789	N
1:51	40025	N
1:51	40261	N
1:52	40494	N
1:53	40723	N
1:53	40962	N
1:54	41203	N
1:55	41440	N
1:55	41669	N
1:56	41901	N
1:57	42133	N
1:57	42369	N
1:58	42613	N
1:59	42843	N
1:59	43069	N
2:00	43302	N
2:00	43546	N
2:01	43780	N
2:02	44007	N
2:02	44235	N
2:03	44469	N
2:04	44701	N
2:04	44932	N
2:05	45163	N
2:06	45391	N
2:06	45611	N
2:07	45840	N
2:07	46078	N
2:08	46312	N
2:09	46543	N
2:09	46777	N
2:10	47010	N
2:11	47247	N
2:11	47486	N
2:12	47715	N
2:13	47945	N
2:13	48181	N
2:14	48425	N
2:15	48661	N
2:15	48893	N
2:16	49126	N
2:17	49363	N
2:17	49605	N
2:18	49847	N
2:19	50079	N
2:19	50311	N
2:20	50543	N
2:21	50787	N
2:21	51022	N
2:22	51258	N
2:23	51488	N
2:23	51725	N
2:24	51958	N
2:24	52198	N
2:25	52432	N
2:26	52665	N
2:26	52895	N
2:27	53139	N
2:28	53375	N
2:28	53609	N
2:29	53838	N
2:30	54070	N
2:30	54299	N
2:31	54534	N
2:32	54772	N
2:32	55002	N
2:33	55227	N
2:34	55462	N
2:34	55704	N
2:35	55934	N
2:36	56160	N
2:36	56390	N
2:37	56624	N
2:37	56860	N
2:38	57099	N
2:39	57331	N
2:39	57564	N
2:40	57793	N
2:41	58033	N
2:41	58266	N
2:42	58497	N
2:43	58724	N
2:43	58956	N
2:44	59183	N
2:45	59416	N
2:45	59650	N
2:46	59882	N
2:46	60108	N
2:47	60344	N
2:48	60584	N
2:48	60820	N
2:49	61048	N
2:50	61281	N
2:50	61515	N
2:51	61752	N
2:52	61992	N
2:52	62223	N
2:53	62456	N
2:54	62694	N
2:54	62939	N
2:55	63171	N
2:56	63398	N
2:56	63629	N
2:57	63862	N
2:58	64095	N
2:58	64334	N
2:59	64562	N
2:59	64794	N
3:00	65022	N
3:01	65265	N
3:01	65499	N
3:02	65734	N
3:03	65965	N
3:03	66200	N
3:04	66430	N
3:05	66669	N
3:05	66907	N
3:06	67141	N
3:07	67366	N
3:07	67602	N
3:08	67840	N
3:09	68073	N
3:09	68298	N
3:10	68528	N
3:10	68758	N
3:11	68991	N
3:12	69226	N
3:12	69453	N
3:13	69680	N
3:14	69910	N
3:14	70153	N
3:15	70385	N
3:16	70615	N
3:16	70842	N
3:17	71079	N
3:18	71307	N
3:18	71543	N
3:19	71776	N
3:20	72007	N
3:20	72231	N
3:21	72466	N
3:21	72704	N
3:22	72939	N
3:23	73164	N
3:23	73396	N
3:24	73629	N
3:25	73867	N
3:25	74108	N
3:26	74343	N
3:27	74579	N
3:27	74814	N
3:28	75056	N
3:29	75290	N
3:29	75522	N
3:30	75753	N
3:31	75986	N
3:31	76218	N
3:32	76451	N
3:33	76684	N
3:33	76915	N
3:34	77140	N
3:34	77378	N
3:35	77614	N
3:36	77849	N
3:36	78075	N
3:37	78308	N
3:38	78541	N
3:38	78783	N
3:39	79024	N
3:40	79255	N
3:40	79482	N
3:41	79721	N
3:42	79962	N
3:42	80196	N
3:43	80423	N
3:44	80657	N
3:44	80891	N
3:45	81125	N
3:46	81363	N
3:46	81596	N
3:47	81825	N
3:47	82056	N
3:48	82294	N
3:49	82531	N
3:49	82765	N
3:50	82998	N
3:51	83235	N
3:51	83465	N
3:52	83702	N
3:53	83943	N
3:53	84178	N
3:54	84407	N
3:55	84644	N
3:55	84886	N
3:56	85120	N
3:57	85346	N
3:57	85578	N
3:58	85809	N
3:59	86047	N
3:59	86289	N
4:00	86520	N
4:00	86753	N
4:01	86992	N
4:02	87240	N
4:03	87480	N
4:03	87713	N
4:04	87949	N
4:04	88188	N
4:05	88432	N
4:06	88676	N
4:06	88911	N
4:07	89146	N
4:08	89385	N
4:08	89632	N
4:09	89869	N
4:10	90103	N
4:10	90341	N
4:11	90581	N
4:12	90824	N
4:12	91069	N
4:13	91307	N
4:14	91547	N
4:14	91786	N
4:15	92037	N
4:16	92275	N
4:16	92511	N
4:17	92749	N
4:18	92989	N
4:18	93228	N
4:19	93471	N
4:20	93706	N
4:20	93940	N
4:21	94176	N
4:22	94422	N
4:22	94662	N
4:23	94896	N
4:24	95130	N
4:24	95370	N
4:25	95608	N
4:26	95850	N
4:26	96090	N
4:27	96325	N
4:28	96557	N
4:28	96798	N
4:29	97036	N
4:30	97267	N
4:30	97495	N
4:31	97727	N
4:32	97955	N
4:32	98185	N
4:33	98418	N
4:34	98644	N
4:34	98868	N
4:35	99097	N
4:35	99333	N
4:36	99562	N
4:37	99787	N
4:37	100014	N
4:38	100245	N
4:39	100478	N
4:39	100712	N
4:40	100940	N
4:41	101168	N
4:41	101392	N
4:42	101626	N
4:42	101860	N
4:43	102092	N
4:44	102314	N
4:44	102540	N
4:45	102768	N
4:46	103004	N
4:46	103244	N
4:47	103470	N
4:48	103698	N
4:48	103932	N
4:49	104175	N
4:50	104405	N
4:50	104635	N
4:51	104863	N
4:51	105096	N
4:52	105325	N
4:53	105560	N
4:53	105789	N
4:54	106019	N
4:55	106242	N
4:55	106477	N
4:56	106709	N
4:57	106941	N
4:57	107166	N
4:58	107396	N
4:58	107625	N
4:59	107857	N
5:00	108095	N
5:00	108324	N
5:01	108555	N
5:02	108783	N
5:02	109027	N
5:03	109257	N
5:04	109486	N
5:04	109716	N
5:05	109951	N
5:06	110180	N
5:06	110417	N
5:07	110652	N
5:08	110885	N
5:08	111109	N
5:09	111349	N
5:09	111588	N
5:10	111824	N
5:11	112051	N
5:11	112285	N
5:12	112520	N
5:13	112760	N
5:13	113001	N
5:14	113240	N
5:15	113471	N
5:15	113712	N
5:16	113955	N
5:17	114192	N
5:17	114422	N
5:18	114658	N
5:19	114894	N
5:19	115135	N
5:20	115374	N
5:21	115605	N
5:21	115838	N
5:22	116075	N
5:23	116319	N
5:23	116554	N
5:24	116787	N
5:25	117021	N
5:25	117260	N
5:26	117500	N
5:27	117743	N
5:27	117980	N
5:28	118215	N
5:29	118450	N
5:29	118697	N
5:30	118937	N
5:31	119174	N
5:31	119405	N
5:32	119640	N
5:32	119871	N
5:33	120111	N
5:34	120346	N
5:34	120581	N
5:35	120814	N
5:36	121063	N
5:36	121305	N
5:37	121544	N
5:38	121778	N
5:38	122019	N
5:39	122253	N
5:40	122492	N
5:40	122733	N
5:41	122970	N
5:42	123199	N
5:42	123440	N
5:43	123681	N
5:44	123917	N
5:44	124146	N
5:45	124383	N
5:46	124621	N
5:46	124863	N
5:47	125107	N
5:48	125347	N
5:48	125581	N
5:49	125827	N
5:50	126073	N
5:50	126316	N
5:51	126550	N
5:52	126788	N
5:52	127027	N
5:53	127275	N
5:54	127524	N
5:54	127765	N
5:55	128001	N
5:56	128245	N
5:56	128490	N
5:57	128734	N
5:58	128968	N
5:58	129206	N
5:59	129443	N
6:00	129688	N
6:00	129934	N
6:01	130174	N
6:02	130410	N
6:02	130659	N
6:03	130907	N
6:04	131151	N
6:04	131390	N
6:05	131633	N
6:06	131873	N
6:07	132122	N
6:07	132370	N
6:08	132610	N
6:09	132847	N
6:09	133094	N
6:10	133340	N
6:11	133583	N
6:11	133818	N
6:12	134057	N
6:13	134293	N
6:13	134537	N
6:14	134785	N
6:15	135024	N
6:15	135255	N
6:16	135495	N
6:17	135740	N
6:17	135977	N
6:18	136204	N
6:18	136435	N
6:19	136667	N
6:20	136903	N
6:20	137140	N
6:21	137371	N
6:22	137599	N
6:22	137832	N
6:23	138074	N
6:24	138309	N
6:24	138541	N
6:25	138775	N
6:26	139014	N
6:26	139254	N
6:27	139493	N
6:28	139730	N
6:28	139964	N
6:29	140198	N
6:30	140441	N
6:30	140681	N
6:31	140919	N
6:32	141150	N
6:32	141382	N
6:33	141614	N
6:34	141850	N
6:34	142090	N
6:35	142320	N
6:35	142550	N
6:36	142785	N
6:37	143027	N
6:37	143262	N
6:38	143494	N
6:39	143728	N
6:39	143965	N
6:40	144095	~
6:40	144206	N
6:41	144451	N
6:41	144534	~
6:41	144686	N
6:42	144919	N
6:43	145155	N
6:43	145401	N
6:44	145635	N
6:45	145868	N
6:45	146101	N
6:46	146342	N
6:47	146581	N
6:47	146824	N
6:48	147063	N
6:48	147172	~
6:49	147302	N
6:49	147428	~
6:49	147541	N
6:50	147793	N
6:51	148032	N
6:51	148268	N
6:52	148503	N
6:53	148745	N
6:53	148980	N
6:54	149220	N
6:55	149457	N
6:55	149692	N
6:56	149922	N
6:57	150163	N
6:57	150404	N
6:58	150641	N
6:59	150873	N
6:59	151116	N
7:00	151351	N
7:01	151592	N
7:01	151835	N
7:02	152075	N
7:03	152309	N
7:03	152553	N
7:04	152798	N
7:05	153038	N
7:05	153268	N
7:06	153505	N
7:07	153742	N
7:07	153982	N
7:08	154228	N
7:09	154467	N
7:09	154705	N
7:10	154955	N
7:11	155205	N
7:11	155452	N
7:12	155691	N
7:13	155935	N
7:13	156175	N
7:14	156422	N
7:15	156667	N
7:15	156907	N
7:16	157144	N
7:17	157390	N
7:17	157632	N
7:18	157873	N
7:19	158107	N
7:19	158344	N
7:20	158577	N
7:21	158816	N
7:21	159058	N
7:22	159294	N
7:23	159523	N
7:23	159765	N
7:24	160008	N
7:25	160245	N
7:25	160477	N
7:26	160713	N
7:27	160947	N
7:27	161187	N
7:28	161431	N
7:29	161666	N
7:29	161897	N
7:30	162136	N
7:31	162382	N
7:31	162617	N
7:32	162846	N
7:32	163077	N
7:33	163313	N
7:34	163553	N
7:34	163794	N
7:35	164026	N
7:36	164258	N
7:36	164493	N
7:37	164740	N
7:38	164976	N
7:38	165208	N
7:39	165442	N
7:40	165681	N
7:40	165918	N
7:41	166157	N
7:42	166388	N
7:42	166624	N
7:43	166853	N
7:44	167093	N
7:44	167326	N
7:45	167560	N
7:46	167789	N
7:46	168023	N
7:47	168251	N
7:48	168488	N
7:48	168724	N
7:49	168957	N
7:49	169183	N
7:50	169422	N
7:51	169661	N
7:51	169896	N
7:52	170121	N
7:53	170350	N
7:53	170580	N
7:54	170814	N
7:55	171052	N
7:55	171279	N
7:56	171504	N
7:57	171732	N
7:57	171973	N
7:58	172203	N
7:58	172432	N
7:59	172659	N
8:00	172892	N
8:00	173118	N
8:01	173353	N
8:02	173587	N
8:02	173820	N
8:03	174044	N
8:04	174280	N
8:04	174520	N
8:05	174753	N
8:06	174980	N
8:06	175213	N
8:07	175444	N
8:07	175679	N
8:08	175915	N
8:09	176147	N
8:09	176377	N
8:10	176607	N
8:11	176846	N
8:11	177079	N
8:12	177311	N
8:13	177539	N
8:13	177775	N
8:14	178007	N
8:15	178244	N
8:15	178481	N
8:16	178713	N
8:17	178939	N
8:17	179176	N
8:18	179416	N
8:19	179652	N
8:19	179875	N
8:20	180106	N
8:20	180336	N
8:21	180573	N
8:22	180810	N
8:22	181039	N
8:23	181269	N
8:24	181501	N
8:24	181741	N
8:25	181973	N
8:26	182202	N
8:26	182433	N
8:27	182666	N
8:28	182899	N
8:28	183134	N
8:29	183366	N
8:29	183596	N
8:30	183824	N
8:31	184059	N
8:31	184290	N
8:32	184519	N
8:33	184743	N
8:33	184971	N
8:34	185197	N
8:35	185430	N
8:35	185667	N
8:36	185893	N
8:36	186117	N
8:37	186349	N
8:38	186590	N
8:38	186823	N
8:39	187048	N
8:40	187275	N
8:40	187507	N
8:41	187737	N
8:42	187968	N
8:42	188197	N
8:43	188422	N
8:44	188644	N
8:44	188877	N
8:45	189112	N
8:45	189341	N
8:46	189564	N
8:47	189792	N
8:47	190021	N
8:48	190254	N
8:49	190491	N
8:49	190719	N
8:50	190947	N
8:51	191181	N
8:51	191422	N
8:52	191653	N
8:53	191880	N
8:53	192110	N
8:54	192341	N
8:54	192574	N
8:55	192807	N
8:56	193035	N
8:56	193263	N
8:57	193489	N
8:58	193724	N
8:58	193958	N
8:59	194189	N
9:00	194416	N
9:00	194643	N
9:01	194870	N
9:01	195105	N
9:02	195347	N
9:03	195576	N
9:03	195801	N
9:04	196036	N
9:05	196275	N
9:05	196508	N
9:06	196733	N
9:07	196963	N
9:07	197194	N
9:08	197427	N
9:09	197663	N
9:09	197892	N
9:10	198118	N
9:10	198347	N
9:11	198585	N
9:12	198815	N
9:12	199042	N
9:13	199270	N
9:14	199504	N
9:14	199733	N
9:15	199965	N
9:16	200198	N
9:16	200426	N
9:17	200649	N
9:18	200881	N
9:18	201118	N
9:19	201346	N
9:19	201568	N
9:20	201793	N
9:21	202020	N
9:21	202250	N
9:22	202483	N
9:23	202710	N
9:23	202936	N
9:24	203161	N
9:24	203396	N
9:25	203631	N
9:26	203863	N
9:26	204089	N
9:27	204317	N
9:28	204544	N
9:28	204775	N
9:29	205010	N
9:30	205234	N
9:30	205459	N
9:31	205689	N
9:32	205925	N
9:32	206153	N
9:33	206378	N
9:33	206605	N
9:34	206839	N
9:35	207073	N
9:35	207312	N
9:36	207544	N
9:37	207779	N
9:37	208014	N
9:38	208258	N
9:39	208497	N
9:39	208734	N
9:40	208969	N
9:41	209207	N
9:41	209441	N
9:42	209682	N
9:43	209924	N
9:43	210159	N
9:44	210389	N
9:45	210629	N
9:45	210871	N
9:46	211110	N
9:47	211343	N
9:47	211580	N
9:48	211815	N
9:49	212055	N
9:49	212301	N
9:50	212536	N
9:51	212766	N
9:51	213004	N
9:52	213249	N
9:53	213483	N
9:53	213711	N
9:54	213942	N
9:54	214178	N
9:55	214413	N
9:56	214649	N
9:56	214879	N
9:57	215113	N
9:58	215346	N
9:58	215592	N
9:59	215827	N
10:00	216062	N
10:00	216296	N
10:01	216538	N
10:02	216778	N
10:02	217022	N
10:03	217259	N
10:04	217496	N
10:04	217731	N
10:05	217977	N
10:06	218215	N
10:06	218456	N
10:07	218688	N
10:08	218927	N
10:08	219161	N
10:09	219403	N
10:10	219641	N
10:10	219878	N
10:11	220109	N
10:12	220353	N
10:12	220592	N
10:13	220830	N
10:14	221062	N
10:14	221300	N
10:15	221532	N
10:16	221773	N
10:16	222012	N
10:17	222247	N
10:17	222476	N
10:18	222718	N
10:19	222960	N
10:19	223196	N
10:20	223425	N
10:21	223660	N
10:21	223893	N
10:22	224133	N
10:23	224374	N
10:23	224608	N
10:24	224836	N
10:25	225074	N
10:25	225321	N
10:26	225558	N
10:27	225787	N
10:27	226023	N
10:28	226259	N
10:29	226500	N
10:29	226741	N
10:30	226975	N
10:31	227211	N
10:31	227444	N
10:32	227689	N
10:33	227926	N
10:33	228158	N
10:34	228393	N
10:35	228630	N
10:35	228870	N
10:36	229111	N
10:37	229344	N
10:37	229580	N
10:38	229815	N
10:39	230060	N
10:39	230295	N
10:40	230529	N
10:40	230758	N
10:41	230993	N
10:42	231223	N
10:42	231461	N
10:43	231691	N
10:44	231921	N
10:44	232146	N
10:45	232384	N
10:46	232619	N
10:46	232852	N
10:47	233078	N
10:48	233311	N
10:48	233540	N
10:49	233780	N
10:50	234021	N
10:50	234257	N
10:51	234488	N
10:52	234729	N
10:52	234973	N
10:53	235208	N
10:53	235437	N
10:54	235673	N
10:55	235904	N
10:55	236140	N
10:56	236377	N
10:57	236608	N
10:57	236836	N
10:58	237065	N
10:59	237308	N
10:59	237542	N
11:00	237772	N
11:01	237999	N
11:01	238237	N
11:02	238470	N
11:03	238707	N
11:03	238943	N
11:04	239178	N
11:05	239406	N
11:05	239648	N
11:06	239889	N
11:07	240127	N
11:07	240355	N
11:08	240586	N
11:08	240817	N
11:09	241054	N
11:10	241292	N
11:10	241524	N
11:11	241752	N
11:12	241989	N
11:12	242229	N
11:13	242464	N
11:14	242693	N
11:14	242926	N
11:15	243159	N
11:16	243397	N
11:16	243633	N
11:17	243868	N
11:18	244099	N
11:18	244332	N
11:19	244569	N
11:19	244799	N
11:20	245028	N
11:21	245254	N
11:21	245482	N
11:22	245708	N
11:23	245943	N
11:23	246181	N
11:24	246411	N
11:25	246638	N
11:25	246876	N
11:26	247120	N
11:27	247355	N
11:27	247580	N
11:28	247813	N
11:29	248046	N
11:29	248284	N
11:30	248521	N
11:30	248753	N
11:31	248982	N
11:32	249215	N
11:32	249458	N
11:33	249691	N
11:34	249920	N
11:34	250156	N
11:35	250395	N
11:36	250632	N
11:36	250869	N
11:37	251108	N
11:38	251346	N
11:38	251580	N
11:39	251824	N
11:40	252066	N
11:40	252302	N
11:41	252536	N
11:42	252774	N
11:42	253010	N
11:43	253249	N
11:44	253486	N
11:44	253720	N
11:45	253952	N
11:46	254191	N
11:46	254434	N
11:47	254671	N
11:48	254901	N
11:48	255135	N
11:49	255368	N
11:50	255612	N
11:50	255855	N
11:51	256087	N
11:51	256319	N
11:52	256558	N
11:53	256800	N
11:53	257035	N
11:54	257265	N
11:55	257497	N
11:55	257727	N
11:56	257964	N
11:57	258204	N
11:57	258432	N
11:58	258660	N
11:59	258894	N
11:59	259136	N
12:00	259366	N
12:01	259595	N
12:01	259830	N
12:02	260066	N
12:03	260304	N
12:03	260544	N
12:04	260780	N
12:05	261015	N
12:05	261249	N
12:06	261495	N
12:07	261732	N
12:07	261964	N
12:08	262196	N
12:08	262430	N
12:09	262664	N
12:10	262900	N
12:10	263137	N
12:11	263371	N
12:12	263600	N
12:12	263838	N
12:13	264079	N
12:14	264314	N
12:14	264543	N
12:15	264773	N
12:16	265004	N
12:16	265239	N
12:17	265477	N
12:18	265706	N
12:18	265934	N
12:19	266168	N
12:20	266406	N
12:20	266637	N
12:21	266863	N
12:21	267092	N
12:22	267324	N
12:23	267562	N
12:23	267802	N
12:24	268032	N
12:25	268262	N
12:25	268496	N
12:26	268740	N
12:27	268972	N
12:27	269206	N
12:28	269437	N
12:29	269670	N
12:29	269902	N
12:30	270139	N
12:31	270374	N
12:31	270603	N
12:32	270828	N
12:32	271063	N
12:33	271299	N
12:34	271532	N
12:34	271759	N
12:35	271988	N
12:36	272217	N
12:36	272450	N
12:37	272692	N
12:38	272923	N
12:38	273152	N
12:39	273388	N
12:40	273634	N
12:40	273868	N
12:41	274099	N
12:42	274331	N
12:42	274571	N
12:43	274808	N
12:44	275047	N
12:44	275280	N
12:45	275515	N
12:45	275751	N
12:46	275998	N
12:47	276237	N
12:47	276475	N
12:48	276710	N
12:49	276952	N
12:49	277190	N
12:50	277435	N
12:51	277675	N
12:51	277915	N
12:52	278149	N
12:53	278393	N
12:53	278634	N
12:54	278874	N
12:55	279106	N
12:55	279342	N
12:56	279577	N
12:57	279819	N
12:57	280060	N
12:58	280297	N
12:59	280527	N
12:59	280769	N
13:00	281010	N
13:01	281248	N
13:01	281481	N
13:02	281716	N
13:03	281949	N
13:03	282189	N
13:04	282431	N
13:05	282665	N
13:05	282893	N
13:06	283131	N
13:07	283374	N
13:07	283606	N
13:08	283835	N
13:09	284067	N
13:09	284301	N
13:10	284538	N
13:11	284778	N
13:11	285008	N
13:12	285238	N
13:12	285468	N
13:13	285712	N
13:14	285944	N
13:14	286177	N
13:15	286406	N
13:16	286641	N
13:16	286870	N
13:17	287105	N
13:18	287338	N
13:18	287568	N
13:19	287791	N
13:20	288026	N
13:20	288263	N
13:21	288496	N
13:21	288719	N
13:22	288950	N
13:23	289180	N
13:23	289418	N
13:24	289657	N
13:25	289885	N
13:25	290115	N
13:26	290352	N
13:27	290596	N
13:27	290830	N
13:28	291056	N
13:29	291288	N
13:29	291522	N
13:30	291759	N
13:31	291997	N
13:31	292225	N
13:32	292455	N
13:33	292685	N
13:33	292926	N
13:34	293156	N
13:34	293389	N
13:35	293618	N
13:36	293852	N
13:36	294083	N
13:37	294322	N
13:38	294558	N
13:38	294794	N
13:39	295022	N
13:40	295263	N
13:40	295501	N
13:41	295736	N
13:42	295968	N
13:42	296205	N
13:43	296435	N
13:44	296675	N
13:44	296916	N
13:45	297152	N
13:46	297382	N
13:46	297624	N
13:47	297871	N
13:48	298112	N
13:48	298344	N
13:49	298584	N
13:50	298823	N
13:50	299069	N
13:51	299315	N
13:52	299557	N
13:52	299790	N
13:53	300037	N
13:54	300282	N
13:54	300524	N
13:55	300755	N
13:56	300992	N
13:56	301226	N
13:57	301467	N
13:58	301710	N
13:58	301946	N
13:59	302178	N
14:00	302418	N
14:00	302662	N
14:01	302903	N
14:02	303135	N
14:02	303371	N
14:03	303607	N
14:04	303850	N
14:04	304094	N
14:05	304312	N
14:05	304425	+
14:05	304523	J
14:06	304697	J
14:06	304890	J
14:07	305063	J
14:07	305229	J
14:08	305426	J
14:08	305622	J
14:09	305833	J
14:10	306055	J
14:10	306267	J
14:11	306496	J
14:12	306727	J
14:12	306926	J
14:13	307118	J
14:13	307339	J
14:14	307573	J
14:15	307815	J
14:15	308053	J
14:16	308286	J
14:16	308480	J
14:17	308684	J
14:18	308911	J
14:18	309101	J
14:19	309292	J
14:19	309497	J
14:20	309695	J
14:20	309884	J
14:21	310059	J
14:21	310221	J
14:22	310371	J
14:22	310526	J
14:23	310685	J
14:23	310852	J
14:23	311035	J
14:24	311189	J
14:24	311354	J
14:25	311518	J
14:25	311680	J
14:26	311833	J
14:26	311984	J
14:27	312146	J
14:27	312304	J
14:27	312457	J
14:28	312605	J
14:28	312763	J
14:29	312928	J
14:29	313077	J
14:30	313227	J
14:30	313369	J
14:30	313517	J
14:31	313772	+
14:31	313875	N
14:32	314138	N
14:33	314387	N
14:34	314642	N
14:34	314893	N
14:35	315140	N
14:36	315380	N
14:36	315624	N
14:37	315870	N
14:38	316118	N
14:38	316364	N
14:39	316607	N
14:40	316848	N
14:40	317099	N
14:41	317342	N
14:42	317582	N
14:42	317823	N
14:43	318067	N
14:44	318308	N
14:44	318552	N
14:45	318794	N
14:46	319031	N
14:46	319272	N
14:47	319524	N
14:48	319765	N
14:48	320005	N
14:49	320246	N
14:50	320490	N
14:50	320732	N
14:51	320978	N
14:52	321218	N
14:52	321454	N
14:53	321691	N
14:54	321940	N
14:54	322181	N
14:55	322415	N
14:56	322646	N
14:56	322885	N
14:57	323122	N
14:58	323362	N
14:58	323600	N
14:59	323833	N
15:00	324068	N
15:00	324312	N
15:01	324552	N
15:02	324787	N
15:02	325017	N
15:03	325253	N
15:04	325486	N
15:04	325722	N
15:05	325959	N
15:06	326192	N
15:06	326424	N
15:07	326664	N
15:08	326904	N
15:08	327141	N
15:09	327372	N
15:10	327607	N
15:10	327841	N
15:11	328082	N
15:12	328325	N
15:12	328559	N
15:13	328790	N
15:13	329031	N
15:14	329275	N
15:15	329513	N
15:15	329744	N
15:16	329977	N
15:17	330210	N
15:17	330450	N
15:18	330694	N
15:19	330925	N
15:19	331154	N
15:20	331391	N
15:21	331633	N
15:21	331867	N
15:22	332095	N
15:23	332330	N
15:23	332564	N
15:24	332801	N
15:25	333041	N
15:25	333276	N
15:26	333507	N
15:27	333742	N
15:27	333985	N
15:28	334219	N
15:29	334449	N
15:29	334681	N
15:30	334919	N
15:30	335155	N
15:31	335390	N
15:32	335625	N
15:32	335856	N
15:33	336087	N
15:34	336329	N
15:34	336570	N
15:35	336806	N
15:36	337040	N
15:36	337277	N
15:37	337514	N
15:38	337757	N
15:38	337999	N
15:39	338237	N
15:40	338471	N
15:40	338713	N
15:41	338958	N
15:42	339200	N
15:42	339434	N
15:43	339668	N
15:44	339902	N
15:44	340144	N
15:45	340388	N
15:46	340621	N
15:46	340854	N
15:47	341098	N
15:48	341346	N
15:48	341584	N
15:49	341818	N
15:50	342055	N
15:50	342292	N
15:51	342533	N
15:52	342779	N
15:52	343011	N
15:53	343243	N
15:54	343483	N
15:54	343729	N
15:55	343964	N
15:56	344193	N
15:56	344426	N
15:57	344661	N
15:58	344898	N
15:58	345140	N
15:59	345373	N
16:00	345606	N
16:00	345839	N
16:01	346084	N
16:01	346319	N
16:02	346552	N
16:03	346786	N
16:03	347026	N
16:04	347261	N
16:05	347500	N
16:05	347740	N
16:06	347977	N
16:07	348209	N
16:07	348452	N
16:08	348692	N
16:09	348930	N
16:09	349162	N
16:10	349403	N
16:11	349643	N
16:11	349886	N
16:12	350128	N
16:13	350372	N
16:13	350609	N
16:14	350859	N
16:15	351105	N
16:15	351349	N
16:16	351588	N
16:17	351833	N
16:17	352074	N
16:18	352320	N
16:19	352562	N
16:20	352802	N
16:20	353037	N
16:21	353282	N
16:22	353520	N
16:22	353760	N
16:23	353995	N
16:23	354234	N
16:24	354469	N
16:25	354712	N
16:25	354954	N
16:26	355192	N
16:27	355425	N
16:27	355671	N
16:28	355915	N
16:29	356155	N
16:29	356389	N
16:30	356628	N
16:31	356863	N
16:31	357106	N
16:32	357345	N
16:33	357579	N
16:33	357810	N
16:34	358055	N
16:35	358299	N
16:35	358537	N
16:36	358768	N
16:37	359005	N
16:37	359240	N
16:38	359481	N
16:39	359725	N
16:39	359962	N
16:40	360194	N
16:41	360437	N
16:41	360684	N
16:42	360926	N
16:43	361158	N
16:43	361393	N
16:44	361628	N
16:45	361869	N
16:45	362113	N
16:46	362349	N
16:47	362582	N
16:47	362823	N
16:48	363068	N
16:49	363307	N
16:49	363540	N
16:50	363776	N
16:51	364013	N
16:51	364257	N
16:52	364504	N
16:53	364739	N
16:53	364972	N
16:54	365213	N
16:55	365458	N
16:55	365692	N
16:56	365921	N
16:57	366152	N
16:57	366385	N
16:58	366623	N
16:59	366865	N
16:59	367096	N
17:00	367327	N
17:01	367562	N
17:01	367809	N
17:02	368042	N
17:02	368274	N
17:03	368510	N
17:04	368747	N
17:04	368984	N
17:05	369226	N
17:06	369391	V
17:06	369696	N
17:07	369930	N
17:08	370174	N
17:08	370406	N
17:09	370638	N
17:10	370868	N
17:10	371106	N
17:11	371338	N
17:12	371577	N
17:12	371811	N
17:13	372047	N
17:14	372277	N
17:14	372521	N
17:15	372763	N
17:16	373001	N
17:16	373228	N
17:17	373463	N
17:18	373695	N
17:18	373933	N
17:19	374171	N
17:20	374402	N
17:20	374629	N
17:21	374865	N
17:21	375107	N
17:22	375342	N
17:23	375568	N
17:23	375799	N
17:24	376031	N
17:25	376269	N
17:25	376508	N
17:26	376738	N
17:27	376969	N
17:27	377201	N
17:28	377441	N
17:29	377670	N
17:29	377902	N
17:30	378131	N
17:31	378364	N
17:31	378592	N
17:32	378827	N
17:32	379059	N
17:33	379294	N
17:34	379521	N
17:34	379763	N
17:35	380001	N
17:36	380240	N
17:36	380472	N
17:37	380711	N
17:38	380947	N
17:38	381191	N
17:39	381438	N
17:40	381676	N
17:40	381906	N
17:41	382150	N
17:42	382397	N
17:42	382636	N
17:43	382866	N
17:44	383103	N
17:44	383338	N
17:45	383581	N
17:46	383824	N
17:46	384062	N
17:47	384296	N
17:48	384540	N
17:48	384788	N
17:49	385030	N
17:50	385264	N
17:50	385507	N
17:51	385746	N
17:52	385990	N
17:52	386237	N
17:53	386475	N
17:54	386710	N
17:54	386955	N
17:55	387200	N
17:56	387444	N
17:56	387678	N
17:57	387918	N
17:58	388157	N
17:58	388407	N
17:59	388655	N
18:00	388895	N
18:00	389131	N
18:01	389377	N
18:02	389626	N
18:02	389870	N
18:03	390104	N
18:04	390343	N
18:04	390578	N
18:05	390823	N
18:06	391070	N
18:06	391306	N
18:07	391536	N
18:08	391780	N
18:08	392022	N
18:09	392259	N
18:10	392487	N
18:10	392722	N
18:11	392953	N
18:12	393190	N
18:12	393430	N
18:13	393663	N
18:14	393893	N
18:14	394135	N
18:15	394384	N
18:16	394622	N
18:16	394851	N
18:17	395089	N
18:18	395326	N
18:18	395569	N
18:19	395812	N
18:20	396048	N
18:20	396283	N
18:21	396522	N
18:22	396772	N
18:22	397012	N
18:23	397247	N
18:24	397486	N
18:24	397725	N
18:25	397971	N
18:26	398221	N
18:26	398460	N
18:27	398697	N
18:28	398941	N
18:28	399190	N
18:29	399434	N
18:30	399667	N
18:30	399905	N
18:31	400142	N
18:32	400389	N
18:32	400634	N
18:33	400872	N
18:34	401105	N
18:34	401349	N
18:35	401597	N
18:36	401835	N
18:36	402065	N
18:37	402304	N
18:38	402541	N
18:38	402783	N
18:39	403028	N
18:40	403263	N
18:40	403496	N
18:41	403736	N
18:42	403982	N
18:42	404222	N
18:43	404455	N
18:44	404693	N
18:44	404931	N
18:45	405173	N
18:46	405417	N
18:46	405656	N
18:47	405891	N
18:48	406130	N
18:48	406378	N
18:49	406621	N
18:50	406857	N
18:50	407095	N
18:51	407337	N
18:52	407581	N
18:52	407825	N
18:53	408064	N
18:54	408301	N
18:54	408541	N
18:55	408790	N
18:56	409032	N
18:56	409265	N
18:57	409501	N
18:58	409740	N
18:58	409984	N
18:59	410227	N
19:00	410462	N
19:00	410697	N
19:01	410937	N
19:02	411184	N
19:02	411424	N
19:03	411660	N
19:04	411896	N
19:04	412134	N
19:05	412373	N
19:06	412613	N
19:06	412851	N
19:07	413085	N
19:08	413317	N
19:08	413557	N
19:09	413793	N
19:10	414029	N
19:10	414261	N
19:11	414494	N
19:12	414726	N
19:12	414965	N
19:13	415208	N
19:14	415443	N
19:14	415671	N
19:15	415914	N
19:15	416155	N
19:16	416390	N
19:17	416617	N
19:17	416852	N
19:18	417087	N
19:19	417325	N
19:19	417566	N
19:20	417798	N
19:21	418026	N
19:21	418263	N
19:22	418508	N
19:23	418747	N
19:23	418979	N
19:24	419219	N
19:25	419460	N
19:25	419707	N
19:26	419957	N
19:27	420198	N
19:27	420437	N
19:28	420678	N
19:29	420928	N
19:29	421171	N
19:30	421405	N
19:31	421644	N
19:31	421883	N
19:32	422126	N
19:33	422373	N
19:33	422610	N
19:34	422846	N
19:35	423090	N
19:35	423340	N
19:36	423584	N
19:37	423820	N
19:37	424059	N
19:38	424298	N
19:39	424546	N
19:39	424796	N
19:40	425033	N
19:41	425269	N
19:41	425514	N
19:42	425763	N
19:43	426003	N
19:43	426237	N
19:44	426475	N
19:45	426712	N
19:45	426956	N
19:46	427203	N
19:47	427440	N
19:47	427673	N
19:48	427918	N
19:49	428164	N
19:50	428403	N
19:50	428635	N
19:51	428872	N
19:51	429107	N
19:52	429346	N
19:53	429592	N
19:53	429830	N
19:54	430063	N
19:55	430304	N
19:55	430553	N
19:56	430792	N
19:57	431024	N
19:57	431261	N
19:58	431499	N
19:59	431743	N
19:59	431992	N
20:00	432229	N
20:01	432464	N
20:01	432708	N
20:02	432959	N
20:03	433202	N
20:03	433434	N
20:04	433669	N
20:05	433906	N
20:05	434148	N
20:06	434394	N
20:07	434630	N
20:07	434867	N
20:08	435114	N
20:09	435367	N
20:10	435614	N
20:10	435857	N
20:11	436104	N
20:12	436346	N
20:12	436595	N
20:13	436844	N
20:14	437085	N
20:14	437325	N
20:15	437574	N
20:16	437822	N
20:16	438065	N
20:17	438308	N
20:18	438552	N
20:18	438793	N
20:19	439039	N
20:20	439283	N
20:20	439522	N
20:21	439758	N
20:22	440004	N
20:22	440250	N
20:23	440492	N
20:24	440727	N
20:24	440967	N
20:25	441204	N
20:26	441445	N
20:26	441690	N
20:27	441927	N
20:28	442159	N
20:28	442401	N
20:29	442647	N
20:30	442886	N
20:30	443118	N
20:31	443351	N
20:32	443585	N
20:32	443822	N
20:33	444061	N
20:34	444293	N
20:34	444523	N
20:35	444762	N
20:36	445005	N
20:36	445242	N
20:37	445473	N
20:38	445708	N
20:38	445944	N
20:39	446185	N
20:40	446427	N
20:40	446658	N
20:41	446891	N
20:42	447125	N
20:42	447368	N
20:43	447600	N
20:43	447832	N
20:44	448061	N
20:45	448295	N
20:45	448532	N
20:46	448773	N
20:47	449009	N
20:47	449244	N
20:48	449478	N
20:49	449723	N
20:49	449961	N
20:50	450197	N
20:51	450431	N
20:51	450669	N
20:52	450902	N
20:53	451142	N
20:53	451381	N
20:54	451617	N
20:55	451848	N
20:55	452090	N
20:56	452331	N
20:57	452568	N
20:57	452805	N
20:58	453047	N
20:59	453284	N
20:59	453526	N
21:00	453769	N
21:01	454005	N
21:01	454238	N
21:02	454480	N
21:03	454724	N
21:03	454962	N
21:04	455193	N
21:05	455428	N
21:05	455663	N
21:06	455903	N
21:07	456148	N
21:07	456383	N
21:08	456615	N
21:09	456856	N
21:09	457104	N
21:10	457348	N
21:11	457584	N
21:11	457825	N
21:12	458065	N
21:13	458311	N
21:13	458559	N
21:14	458799	N
21:15	459037	N
21:15	459284	N
21:16	459530	N
21:17	459771	N
21:17	460004	N
21:18	460240	N
21:19	460474	N
21:19	460715	N
21:20	460958	N
21:21	461193	N
21:21	461427	N
21:22	461673	N
21:23	461920	N
21:23	462162	N
21:24	462400	N
21:25	462640	N
21:25	462881	N
21:26	463125	N
21:27	463374	N
21:27	463616	N
21:28	463852	N
21:29	464099	N
21:29	464349	N
21:30	464593	N
21:31	464832	N
21:31	464997	V
21:32	465319	N
21:33	465565	N
21:33	465809	N
21:34	466047	N
21:35	466281	N
21:35	466524	N
21:36	466764	N
21:37	467003	N
21:37	467236	N
21:38	467474	N
21:39	467712	N
21:39	467954	N
21:40	468194	N
21:41	468434	N
21:41	468669	N
21:42	468917	N
21:43	469162	N
21:43	469402	N
21:44	469638	N
21:45	469881	N
21:45	470120	N
21:46	470365	N
21:47	470608	N
21:47	470847	N
21:48	471084	N
21:49	471332	N
21:49	471575	N
21:50	471818	N
21:51	472057	N
21:51	472301	N
21:52	472538	N
21:53	472782	N
21:53	473025	N
21:54	473265	N
21:55	473499	N
21:55	473744	N
21:56	473986	N
21:57	474224	N
21:57	474458	N
21:58	474699	N
21:59	474934	N
21:59	475176	N
22:00	475418	N
22:01	475655	N
22:01	475890	N
22:02	476138	N
22:03	476382	N
22:03	476623	N
22:04	476857	N
22:05	477097	N
22:05	477335	N
22:06	477578	N
22:07	477822	N
22:07	478061	N
22:08	478293	N
22:09	478537	N
22:09	478781	N
22:10	479021	N
22:11	479257	N
22:11	479498	N
22:12	479737	N
22:13	479984	N
22:13	480232	N
22:14	480479	N
22:15	480720	N
22:16	480970	N
22:16	481219	N
22:17	481467	N
22:18	481709	N
22:18	481955	N
22:19	482197	N
22:20	482447	N
22:20	482693	N
22:21	482936	N
22:22	483177	N
22:22	483429	N
22:23	483674	N
22:24	483918	N
22:24	484155	N
22:25	484401	N
22:26	484644	N
22:26	484892	N
22:27	485133	N
22:28	485375	N
22:28	485611	N
22:29	485861	N
22:30	486099	N
22:30	486337	N
22:31	486404	~
22:31	486572	N
22:32	486813	N
22:32	487050	N
22:33	487295	N
22:33	487388	~
22:34	487534	N
22:34	487774	N
22:35	488010	N
22:36	488257	N
22:36	488494	N
22:37	488730	N
22:38	488965	N
22:38	489209	N
22:39	489446	N
22:40	489690	N
22:40	489931	N
22:41	490175	N
22:42	490415	N
22:42	490670	N
22:43	490916	N
22:44	491158	N
22:44	491393	N
22:45	491637	N
22:46	491880	N
22:47	492127	N
22:47	492363	N
22:48	492601	N
22:49	492841	N
22:49	493096	N
22:50	493340	N
22:51	493581	N
22:51	493777	~
22:51	493822	N
22:52	494068	N
22:53	494314	N
22:53	494565	N
22:54	494806	N
22:55	495048	N
22:55	495292	N
22:56	495544	N
22:57	495785	N
22:57	496024	N
22:58	496265	N
22:59	496507	N
22:59	496751	N
23:00	497001	N
23:01	497239	N
23:01	497474	N
23:02	497715	N
23:03	497964	N
23:03	498200	N
23:04	498430	N
23:05	498663	N
23:05	498896	N
23:06	499133	N
23:07	499374	N
23:07	499603	N
23:08	499830	N
23:09	500057	N
23:09	500296	N
23:10	500524	N
23:10	500750	N
23:11	500972	N
23:12	501204	N
23:12	501430	N
23:13	501661	N
23:14	501888	N
23:14	502117	N
23:15	502340	N
23:16	502572	N
23:16	502805	N
23:17	503034	N
23:17	503257	N
23:18	503484	N
23:19	503712	N
23:19	503946	N
23:20	504182	N
23:21	504409	N
23:21	504639	N
23:22	504871	N
23:23	505111	N
23:23	505341	N
23:24	505570	N
23:24	505797	N
23:25	506030	N
23:26	506259	N
23:26	506493	N
23:27	506721	N
23:28	506947	N
23:28	507168	N
23:29	507400	N
23:30	507631	N
23:30	507858	N
23:31	508077	N
23:31	508298	N
23:32	508519	N
23:33	508744	N
23:33	508976	N
23:34	509197	N
23:35	509418	N
23:35	509639	N
23:36	509873	N
23:36	510098	N
23:37	510324	N
23:38	510545	N
23:38	510771	N
23:39	510992	N
23:40	511220	N
23:40	511450	N
23:41	511669	N
23:41	511887	N
23:42	512111	N
23:43	512343	N
23:43	512561	N
23:44	512781	N
23:44	512996	N
23:45	513221	N
23:46	513441	N
23:46	513669	N
23:47	513898	N
23:48	514122	N
23:48	514345	N
23:49	514573	N
23:50	514810	N
23:50	515037	N
23:51	515260	N
23:51	515486	N
23:52	515715	N
23:53	515948	N
23:53	516182	N
23:54	516411	N
23:55	516641	N
23:55	516867	N
23:56	517103	N
23:57	517336	N
23:57	517571	N
23:58	517797	N
23:58	518032	N
23:59	518262	N
24:00	518501	N
24:00	518737	N
24:01	518969	N
24:02	519195	N
24:02	519433	N
24:03	519670	N
24:04	519903	N
24:04	520129	N
24:05	520265	~
24:05	520364	N
24:06	520596	N
24:06	520834	N
24:07	521078	N
24:08	521313	N
24:08	521547	N
24:09	521791	N
24:10	522042	N
24:10	522286	N
24:11	522523	N
24:12	522768	N
24:12	523011	N
24:13	523261	N
24:14	523515	N
24:14	523764	N
24:15	524003	N
24:16	524251	N
24:16	524503	N
24:17	524751	N
24:18	524986	N
24:18	525230	N
24:19	525472	N
24:20	525719	N
24:21	525962	N
24:21	526206	N
24:22	526443	N
24:23	526695	N
24:23	526942	N
24:24	527187	N
24:25	527424	N
24:25	527669	N
24:26	527912	N
24:27	528161	N
24:27	528404	N
24:28	528645	N
24:29	528886	N
24:29	529141	N
24:30	529384	N
24:31	529626	N
24:31	529865	N
24:32	530108	N
24:33	530348	N
24:33	530594	N
24:34	530833	N
24:35	531074	N
24:35	531312	N
24:36	531561	N
24:37	531800	N
24:37	532039	N
24:38	532278	N
24:39	532520	N
24:39	532761	N
24:40	533006	N
24:41	533245	N
24:41	533481	N
24:42	533715	N
24:43	533962	N
24:43	534195	N
24:44	534427	N
24:45	534655	N
24:45	534893	N
24:46	535129	N
24:47	535367	N
24:47	535602	N
24:48	535840	N
24:49	536073	N
24:49	536321	N
24:50	536562	N
24:51	536802	N
24:51	537039	N
24:52	537285	N
24:53	537527	N
24:53	537775	N
24:54	538015	N
24:55	538257	N
24:55	538498	N
24:56	538749	N
24:57	538993	N
24:57	539237	N
24:58	539480	N
24:59	539728	N
24:59	539979	N
25:00	540232	N
25:01	540476	N
25:01	540719	N
25:02	540969	N
25:03	541225	N
25:04	541472	N
25:04	541710	N
25:05	541953	N
25:06	542193	N
25:06	542439	N
25:07	542687	N
25:08	542924	N
25:08	543156	N
25:09	543399	N
25:10	543647	N
25:10	543886	N
25:11	544118	N
25:12	544356	N
25:12	544593	N
25:13	544835	N
25:14	545081	N
25:14	545319	N
25:15	545554	N
25:16	545794	N
25:16	546041	N
25:17	546279	N
25:18	546508	N
25:18	546740	N
25:19	546977	N
25:20	547213	N
25:20	547452	N
25:21	547687	N
25:22	547924	N
25:22	548160	N
25:23	548407	N
25:24	548645	N
25:24	548883	N
25:25	549120	N
25:26	549362	N
25:26	549606	N
25:27	549853	N
25:28	550093	N
25:28	550332	N
25:29	550570	N
25:30	550820	N
25:30	551060	N
25:31	551297	N
25:32	551532	N
25:32	551773	N
25:33	552013	N
25:34	552258	N
25:34	552497	N
25:35	552736	N
25:36	552977	N
25:36	553229	N
25:37	553471	N
25:38	553712	N
25:38	553954	N
25:39	554199	N
25:40	554444	N
25:40	554690	N
25:41	554929	N
25:42	555168	N
25:42	555408	N
25:43	555657	N
25:44	555896	N
25:44	556130	N
25:45	556367	N
25:46	556606	N
25:46	556849	N
25:47	557093	N
25:48	557330	N
25:48	557566	N
25:49	557805	N
25:50	558054	N
25:50	558296	N
25:51	558531	N
25:52	558765	N
25:52	559004	N
25:53	559243	N
25:54	559485	N
25:54	559719	N
25:55	559951	N
25:56	560185	N
25:56	560432	N
25:57	560668	N
25:58	560901	N
25:58	561134	N
25:59	561374	N
26:00	561615	N
26:00	561855	N
26:01	562089	N
26:02	562324	N
26:02	562560	N
26:03	562807	N
26:04	563042	N
26:04	563277	N
26:05	563512	N
26:05	563751	N
26:06	563989	N
26:07	564231	N
26:07	564466	N
26:08	564701	N
26:09	564931	N
26:09	565175	N
26:10	565411	N
26:11	565645	N
26:11	565877	N
26:12	566114	N
26:13	566346	N
26:13	566587	N
26:14	566825	N
26:15	567062	N
26:15	567294	N
26:16	567537	N
26:17	567777	N
26:17	568014	N
26:18	568243	N
26:19	568483	N
26:19	568715	N
26:20	568953	N
26:21	569189	N
26:21	569428	N
26:22	569660	N
26:23	569904	N
26:23	570146	N
26:24	570389	N
26:25	570623	N
26:25	570864	N
26:26	571105	N
26:27	571351	N
26:27	571594	N
26:28	571835	N
26:29	572070	N
26:29	572316	N
26:30	572559	N
26:31	572802	N
26:31	573037	N
26:32	573275	N
26:33	573510	N
26:33	573755	N
26:34	573996	N
26:35	574233	N
26:35	574467	N
26:36	574712	N
26:37	574954	N
26:37	575198	N
26:38	575432	N
26:39	575673	N
26:39	575907	N
26:40	576153	N
26:41	576397	N
26:41	576635	N
26:42	576867	N
26:43	577116	N
26:43	577362	N
26:44	577603	N
26:45	577838	N
26:45	578079	N
26:46	578316	N
26:47	578560	N
26:47	578804	N
26:48	579046	N
26:49	579280	N
26:49	579528	N
26:50	579777	N
26:51	580022	N
26:51	580257	N
26:52	580500	N
26:53	580737	N
26:53	580983	N
26:54	581227	N
26:55	581469	N
26:55	581703	N
26:56	581947	N
26:57	582189	N
26:57	582429	N
26:58	582665	N
26:59	582902	N
26:59	583137	N
27:00	583380	N
27:01	583624	N
27:01	583863	N
27:02	584096	N
27:03	584342	N
27:03	584588	N
27:04	584829	N
27:05	585061	N
27:05	585303	N
27:06	585540	N
27:07	585785	N
27:07	586029	N
27:08	586268	N
27:09	586501	N
27:09	586746	N
27:10	586988	N
27:11	587228	N
27:11	587461	N
27:12	587702	N
27:13	587937	N
27:13	588184	N
27:14	588430	N
27:15	588673	N
27:15	588908	N
27:16	589156	N
27:17	589403	N
27:17	589647	N
27:18	589885	N
27:19	590130	N
27:19	590366	N
27:20	590611	N
27:21	590857	N
27:21	591098	N
27:22	591332	N
27:23	591580	N
27:23	591828	N
27:24	592071	N
27:25	592305	N
27:25	592548	N
27:26	592788	N
27:27	593034	N
27:27	593277	N
27:28	593517	N
27:29	593752	N
27:30	594000	N
27:30	594243	N
27:31	594483	N
27:31	594714	N
27:32	594951	N
27:33	595185	N
27:33	595426	N
27:34	595662	N
27:35	595896	N
27:35	596131	N
27:36	596375	N
27:37	596614	N
27:37	596854	N
27:38	597089	N
27:39	597329	N
27:39	597564	N
27:40	597808	N
27:41	598051	N
27:41	598289	N
27:42	598523	N
27:43	598769	N
27:43	599008	N
27:44	599245	N
27:45	599478	N
27:45	599717	N
27:46	599952	N
27:47	600196	N
27:47	600441	N
27:48	600683	N
27:49	600920	N
27:49	601171	N
27:50	601420	N
27:51	601665	N
27:51	601906	N
27:52	602154	N
27:53	602398	N
27:54	602646	N
27:54	602891	N
27:55	603134	N
27:56	603375	N
27:56	603626	N
27:57	603869	N
27:58	604107	N
27:58	604349	N
27:59	604594	N
28:00	604840	N
28:00	605089	N
28:01	605329	N
28:02	605570	N
28:02	605814	N
28:03	606066	N
28:04	606310	N
28:04	606546	N
28:05	606786	N
28:06	607025	N
28:06	607273	N
28:07	607518	N
28:08	607754	N
28:08	607990	N
28:09	608230	N
28:10	608477	N
28:10	608719	N
28:11	608953	N
28:12	609190	N
28:12	609427	N
28:13	609671	N
28:14	609918	N
28:14	610156	N
28:15	610389	N
28:16	610630	N
28:16	610877	N
28:17	611114	N
28:18	611346	N
28:18	611581	N
28:19	611817	N
28:20	612056	N
28:20	612294	N
28:21	612528	N
28:22	612760	N
28:22	612994	N
28:23	613240	N
28:24	613475	N
28:24	613708	N
28:25	613942	N
28:26	614182	N
28:26	614419	N
28:27	614658	N
28:28	614895	N
28:28	615133	N
28:29	615364	N
28:29	615531	V
28:30	615844	N
28:31	616082	N
28:31	616312	N
28:32	616544	N
28:33	616773	N
28:33	617011	N
28:34	617249	N
28:35	617484	N
28:35	617712	N
28:36	617951	N
28:37	618191	N
28:37	618429	N
28:38	618656	N
28:39	618890	N
28:39	619121	N
28:40	619360	N
28:41	619598	N
28:41	619832	N
28:42	620061	N
28:43	620303	N
28:43	620546	N
28:44	620781	N
28:44	620987	N
28:45	621248	N
28:46	621486	N
28:47	621732	N
28:47	621979	N
28:48	622217	N
28:49	622452	N
28:49	622695	N
28:50	622944	N
28:51	623186	N
28:51	623420	N
28:52	623661	N
28:53	623898	N
28:53	624144	N
28:54	624393	N
28:55	624635	N
28:55	624870	N
28:56	625117	N
28:57	625370	N
28:57	625618	N
28:58	625858	N
28:59	626105	N
28:59	626348	N
29:00	626599	N
29:01	626849	N
29:01	627093	N
29:02	627334	N
29:03	627588	N
29:03	627836	N
29:04	628081	N
29:05	628319	N
29:06	628562	N
29:06	628802	N
29:07	629047	N
29:08	629285	N
29:08	629522	N
29:09	629758	N
29:10	630004	N
29:10	630242	N
29:11	630479	N
29:11	630711	N
29:12	630947	N
29:13	631178	N
29:13	631416	N
29:14	631651	N
29:15	631886	N
29:15	632114	N
29:16	632352	N
29:17	632588	N
29:17	632823	N
29:18	633051	N
29:19	633283	N
29:19	633511	N
29:20	633751	N
29:21	633991	N
29:21	634223	N
29:22	634452	N
29:23	634693	N
29:23	634939	N
29:24	635179	N
29:25	635410	N
29:25	635650	N
29:26	635889	N
29:27	636136	N
29:27	636384	N
29:28	636628	N
29:29	636862	N
29:29	637111	N
29:30	637360	N
29:31	637604	N
29:31	637840	N
29:32	638084	N
29:33	638325	N
29:33	638573	N
29:34	638818	N
29:35	639064	N
29:35	639305	N
29:36	639556	N
29:37	639802	N
29:37	640051	N
29:38	640294	N
29:39	640541	N
29:39	640785	N
29:40	641036	N
29:41	641281	N
29:42	641523	N
29:42	641767	N
29:43	642021	N
29:44	642266	N
29:44	642508	N
29:45	642745	N
29:46	642988	N
29:46	643233	N
29:47	643481	N
29:48	643720	N
29:48	643956	N
29:49	644197	N
29:50	644450	N
29:50	644691	N
29:51	644927	N
29:52	645167	N
29:52	645410	N
29:53	645653	N
29:54	645900	N
29:54	646142	N
29:55	646380	N
29:56	646621	N
29:56	646872	N
29:57	647112	N
29:58	647347	N
29:58	647586	N
29:59	647827	N
30:00	648071	N
30:00	648316	N
30:01	648556	N
30:02	648797	N
30:02	649040	N
30:03	649292	N
30:04	649536	N
30:04	649772	N
